-9,-4,-15,-24,-23,-11,30,-4
31,33,-4,1,6,-5,9,9
-8,-25,-1,-1,-1,16,28,1
3,4,3,0,3,1,-14,2
5,6,17,15,13,3,-10,-4
-17,-15,-9,-7,-11,-9,-18,-1
-5,1,-6,-8,-6,-6,2,2
0,-3,5,2,7,4,11,1
-14,-13,-6,3,-2,-3,-9,-4
5,12,3,1,2,3,5,1
5,32,8,1,1,-3,-5,6
4,-57,-4,1,0,4,6,13
5,21,3,-7,-11,-7,-1,-5
-18,12,-9,-11,-5,-5,-6,-10
10,5,6,-3,0,1,1,2
-4,2,0,2,8,5,2,-1
3,-48,-2,3,5,-1,-7,0
15,9,1,-2,-8,-4,2,-1
-16,-35,-8,0,3,2,-3,-1
7,17,-4,-6,-7,-1,2,0
-1,40,15,0,-3,-4,-5,-1
14,-10,-12,-6,-4,-3,-1,-5
1,-47,-20,-2,0,2,-1,-1
-11,27,-4,-6,-3,-3,-2,-7
8,15,15,18,6,2,0,1
0,9,1,-3,-2,-4,-2,-4
-28,-19,0,4,1,0,-3,-5
20,-6,-6,-11,2,0,-1,-1
-4,10,7,21,-1,-2,-4,-3
9,3,-22,-18,-8,-3,-3,0
12,25,24,19,7,3,4,-1
-19,-16,4,0,1,3,5,8
15,-14,-10,-11,-2,-2,-4,6
-26,5,-2,4,0,-1,-1,-3
21,9,-3,-12,-4,-4,-3,-4
8,3,2,15,3,0,-1,4
-21,-1,17,-5,2,2,1,-1
24,23,-4,6,3,2,2,6
-11,6,-4,-9,-4,0,-3,0
-4,-11,1,5,-1,0,-1,-11
15,-4,-13,-11,-2,-1,-1,-2
-16,-16,6,3,0,-2,-1,-2
-6,21,-5,-7,-6,-2,-1,0
26,-44,-7,10,-2,-2,-3,-5
-5,0,-8,-5,-1,-2,-1,0
-13,-16,1,-3,-3,0,3,6
5,16,3,12,1,-1,-1,-3
-23,-7,0,-4,-1,0,-2,-5
12,9,-5,-4,-1,-3,-5,-5
-1,-13,1,7,3,2,2,0
-7,-3,2,-1,-1,1,0,1
2,15,12,-4,-5,-1,-1,-3
14,6,-4,4,4,0,-2,-4
-18,-2,11,-3,-3,-3,-3,-5
-24,-30,-18,-12,-3,-2,-2,-4
11,12,-1,-6,-2,-1,-2,-4
-12,2,0,0,1,1,2,5
13,-13,3,1,-4,-3,-4,-1
8,5,7,2,-1,-1,1,0
-1,12,-7,-3,-4,-3,-3,-4
-10,19,26,7,3,3,4,11
-6,-52,-32,-9,0,4,2,4
30,19,-3,-4,-1,-2,-4,-3
-15,7,6,2,0,-2,-3,-2
-11,-3,-5,1,1,0,-4,-7
-7,7,10,2,-2,-4,-7,-12
8,-6,-9,-3,-1,1,3,8
-13,3,7,3,3,3,2,10
11,2,-4,-10,-6,-1,0,3
-43,-7,5,12,4,4,2,-3
-13,-27,-16,-3,-1,-9,-8,-11
-2,13,10,-4,-3,-5,-2,0
-19,-8,-16,3,1,1,-3,-11
31,13,-6,-4,-2,1,3,6
1,9,19,-3,0,6,6,7
-35,-5,2,7,2,0,0,-3
6,1,-10,-9,-4,-6,-3,-5
7,-9,-14,0,0,-3,-3,0
-16,-7,-4,-9,-5,-2,-1,-5
33,6,7,17,6,2,3,10
1,17,24,5,-2,-4,-2,-3
-9,5,-13,-5,-2,-2,-3,-3
-12,-29,0,4,2,0,-3,-5
-15,-2,-14,-10,-6,-3,-2,-4
-2,-1,-3,-4,-3,-1,-3,-3
11,7,8,-1,-1,-5,-5,-7
13,30,8,12,2,9,-1,6
-5,-23,8,-3,-7,-6,-4,-5
2,-8,-26,0,11,1,11,12
-21,-12,9,-7,-5,-10,-8,-6
17,26,6,12,2,-5,-14,4
3,-7,-17,-5,-1,4,9,-3
-2,-19,-8,-9,-4,12,7,8
-2,-1,3,0,1,2,14,3
-6,-4,5,-5,-8,-19,3,0
4,13,1,-1,0,-5,-15,-9
-6,-8,1,0,-3,-7,-10,-4
25,3,-12,-12,-3,5,-8,0
5,2,8,21,6,7,-1,-2
-4,20,18,9,1,-1,3,0
0,-26,-12,-6,-4,-5,-9,-8
-7,2,6,4,5,13,-2,10
4,1,-11,-11,0,-14,5,-2
-2,-5,-5,-9,-9,-5,-1,0
-6,2,-10,-3,-2,36,2,-4
-2,2,5,2,-1,-40,-8,3
3,-6,5,12,1,14,29,14
0,4,-6,-19,3,-1,-1,-7
1,2,9,4,0,-7,-7,-4
2,0,-2,-5,-4,7,-11,-13
-12,-2,-7,-5,0,4,-9,0
22,7,-10,-9,-4,-2,-2,-3
1,6,4,2,2,6,-11,-10
-2,-5,6,7,0,-1,-27,-9
-3,-6,-14,-14,-10,-7,27,6
-1,-10,-4,6,2,0,3,0
-12,3,4,-4,-8,-21,10,17
8,12,3,-1,1,19,-17,-9
-15,-10,-6,-11,-15,-35,-32,-21
2,-6,-4,4,7,-10,-12,21
20,12,7,3,3,2,85,1
-3,2,1,-3,-2,13,-1,7
11,-2,4,21,10,15,-10,-2
11,13,23,7,0,3,-5,-5
13,3,-1,-5,-1,-12,-35,-5
-16,-4,-5,-6,-4,-20,1,-2
-29,-19,-3,-10,0,12,7,-10
35,11,-10,5,0,17,-20,-9
-40,-11,-13,-18,-12,-50,-107,-31
32,20,35,43,18,33,49,18
4,6,2,-9,2,15,46,31
-14,-7,1,7,0,-7,23,18
-42,-17,-9,-1,5,27,64,12
-1,-2,-15,-14,-15,-21,-68,-43
0,4,4,-6,5,3,-70,-13
0,-11,-4,3,2,-7,-39,1
19,0,-2,-2,-8,19,-85,-26
0,-8,-15,-11,-13,-117,-9,20
13,32,22,19,19,84,120,40
23,4,1,-9,9,17,-39,-52
-25,-24,-24,-14,-29,-73,6,23
5,-1,-1,0,11,24,5,-23
0,-8,-11,-8,-15,-31,-29,7
-27,-11,-6,-6,-7,2,15,-9
20,10,4,-5,2,15,-43,-48
-7,-4,2,-4,-9,5,-1,33
-22,4,-1,0,-10,-10,3,-20
10,2,7,-1,-6,-25,-12,12
36,-5,-4,2,-8,35,19,-20
30,20,4,0,7,-8,-8,-35
11,-22,-29,-15,5,-53,-63,36
-6,16,13,3,-2,92,96,52
-19,0,4,-5,-36,-110,-81,-53
-44,-41,-23,3,63,50,120,-25
6,14,21,28,-9,46,59,55
-17,-6,-9,-15,1,53,-60,-19
0,-13,-10,-8,4,-21,24,77
-21,4,-4,-25,-47,21,-111,-68
15,-2,2,-9,-5,38,-30,-17
-13,-5,16,26,30,17,105,97
31,18,3,4,24,-6,-95,-46
-41,-21,-9,-8,-30,-51,82,-19
7,-7,-33,-27,21,-51,-30,39
-2,13,28,17,-7,52,17,-7
20,14,-16,12,30,-90,-36,-83
-32,-33,-8,13,32,15,109,3
15,-6,3,-1,-4,-38,27,-1
-18,-26,-12,-16,-16,-95,-128,-35
16,17,6,-3,-49,-41,58,82
-18,-11,-5,-7,11,57,-128,59
80,40,31,25,-19,58,85,1
-62,-30,-26,-32,-12,15,45,-49
-50,-9,8,12,8,89,10,-46
44,31,-3,-13,2,26,-8,80
12,-22,-11,0,-9,28,-71,18
36,31,19,15,-16,-21,13,29
3,11,-2,7,-20,-68,121,-44
-1,2,10,-21,-2,100,-65,-25
-30,0,2,19,51,35,40,25
-31,13,2,14,49,30,-116,34
-49,-5,16,-2,23,66,124,-2
-7,-47,-19,22,51,-45,-53,60
-64,20,17,-4,-37,-3,-13,-16
3,-22,-54,-31,-34,-98,-69,-23
49,40,54,52,54,127,109,64
-75,-28,6,5,-14,19,-112,-114
26,-7,26,-9,-18,-75,-120,-128
43,31,-2,27,-34,57,48,78
28,-3,3,10,9,32,-44,-36
-19,17,27,10,-42,-100,102,68
-12,-26,-2,1,4,1,-88,48
79,30,-3,-23,-4,-49,61,32
-71,-45,-39,-39,2,46,-102,-54
60,64,37,5,-61,-26,-56,75
58,-9,-9,17,9,84,72,-3
-46,-12,-4,2,-10,-107,-40,-126
-18,-12,-8,-11,-5,33,-81,52
16,17,-4,-10,-14,-41,50,107
19,13,2,-29,-52,-107,1,48
-17,-24,-8,20,69,70,-15,-77
-1,-2,5,19,-11,24,112,59
-9,8,3,4,51,118,9,-94
1,28,38,24,46,-5,-71,69
45,-30,-19,11,72,109,-24,10
6,28,29,18,3,-116,8,127
60,-21,-48,-47,-35,-16,-33,4
-120,-12,2,-7,-59,6,127,-78
3,-19,5,9,41,-4,-109,50
2,20,6,-17,-13,-15,-33,89
-6,-14,-29,-21,-34,-46,35,45
-42,-8,5,38,36,90,44,11
4,16,8,-19,-74,-36,76,31
13,-30,-18,-29,-16,-17,-46,-45
-13,26,38,29,-8,-99,1,23
-27,-27,-44,-15,20,-57,-62,-128
-53,-8,2,-19,-46,-87,-9,-4
23,3,-4,12,31,29,-76,-24
30,28,45,19,-33,95,-58,-77
-33,-56,-45,-12,35,49,-28,11
58,21,5,-9,0,57,77,-54
-6,-10,-2,-30,30,19,-123,34
62,17,-15,28,74,49,42,41
5,5,-22,-43,-85,-105,-128,-10
-37,-13,3,-4,-37,-35,-97,-20
22,23,3,-21,-52,10,18,60
4,-22,-5,-4,1,-65,104,-38
2,7,5,8,29,25,18,-25
-38,-2,11,-18,-25,-89,-50,-3
-25,-17,-48,-22,-34,29,-128,-32
30,19,28,53,99,98,83,37
36,7,-5,-7,-16,-67,-58,-26
-55,-12,-10,-11,-33,-61,-128,-59
30,-9,-14,-7,-47,-79,-49,-15
-55,-32,-8,14,9,3,83,-45
16,-2,-6,-19,13,38,-59,24
-49,-1,8,24,78,75,91,-14
-11,-6,3,23,19,33,127,74
22,-11,-11,-18,-1,-43,4,-26
-11,10,8,11,-7,-28,-3,5
18,-8,-18,-22,-42,-55,-11,-12
5,-3,16,26,5,-74,-49,-27
13,5,7,-2,-32,-65,-34,-43
51,25,6,9,0,10,-111,68
7,9,1,-12,-20,-32,1,37
-2,-3,-11,36,28,-66,91,-3
-26,-11,-3,-17,-52,-80,-124,28
-54,-32,-21,-18,32,-45,104,-80
-12,-4,1,19,8,-24,4,-5
20,2,20,-4,-22,20,-19,0
-43,-18,-26,-18,-13,15,38,-95
23,21,29,14,7,39,-44,34
7,-22,-18,-21,-53,9,63,29
4,13,40,59,72,62,127,-4
58,15,-21,-16,1,30,-84,12
23,-14,-11,-6,-79,51,-56,-17
28,14,16,13,16,48,45,-63
-16,-3,-18,-26,-8,-28,-108,6
-2,14,17,-1,-21,-22,34,-2
-6,-2,-11,-15,-23,-85,74,37
-32,-4,0,8,19,15,-78,-30
41,0,-1,-11,-12,20,-58,30
17,6,3,0,7,-7,-128,-9
-42,4,-7,-17,3,51,76,-78
-11,-22,-10,-2,-71,-99,79,79
-43,14,19,5,51,104,18,-17
-20,4,-14,-27,-13,-74,-118,-72
19,10,8,34,28,-34,34,114
17,4,-5,-5,-9,-8,-39,66
-54,-7,-10,-21,-29,-76,48,-32
39,0,-11,-21,-75,-96,-92,53
-10,-6,8,6,52,82,55,-63
31,32,3,-10,-24,-40,-39,47
-6,-11,0,1,38,-52,-30,41
22,4,-2,4,16,81,87,14
-34,-5,-5,-25,-55,-67,-124,57
42,-7,-7,22,127,127,84,31
82,35,-4,-19,3,-37,21,-112
-25,-3,6,33,14,-23,113,10
14,-2,19,3,21,4,-89,-86
-17,-3,-10,-22,-58,-64,-110,-67
28,2,-18,21,37,21,22,89
-100,-34,-3,-17,-1,54,-88,-21
51,53,16,-3,42,57,92,46
9,-12,4,9,20,14,-39,28
-11,-3,-22,-23,-33,76,86,-85
18,0,-5,11,48,26,64,-47
-87,-28,-12,-14,17,-59,-113,-51
-50,7,20,21,-6,-66,-50,76
-24,-18,1,10,4,81,-54,-36
87,46,36,46,51,91,101,127
30,3,-11,-17,-103,-31,-78,49
-57,-22,-9,-1,62,127,69,-81
33,-2,-5,-5,1,-10,-14,-21
-13,-18,-18,-32,-84,-74,35,-17
-15,-14,5,19,21,-24,127,12
-15,2,-7,-6,-37,-53,-11,-22
-40,-12,10,-13,-35,-56,35,-60
41,-1,-19,-16,14,54,-64,-27
44,20,22,15,-9,22,68,63
19,-3,9,42,91,66,111,29
-31,-10,-18,-17,-48,-81,-13,39
-27,3,1,2,8,-33,-102,0
0,-6,-9,0,5,-19,-49,-35
7,1,0,-14,-29,-22,-50,-18
-36,-9,15,11,0,25,-8,44
-23,-1,1,7,9,-4,-15,-16
28,1,-12,-9,2,-12,-39,-3
9,11,3,-11,-15,9,19,-1
21,2,-3,-1,1,-4,-48,-12
-46,-11,7,-2,2,-7,-26,-25
48,-4,-16,-6,7,-10,-70,-22
11,6,9,5,-6,-20,115,-20
-7,-12,-3,-2,-8,-19,-48,-2
-26,-5,-8,-3,-7,-13,-4,6
-8,-10,-19,-5,5,13,7,4
-2,10,10,0,-5,1,-47,-20
22,12,13,-1,-9,-5,-29,2
-5,1,6,0,16,32,44,4
-13,-11,-6,3,8,-33,-5,-14
-26,-7,-20,-18,-14,3,-33,-17
8,5,-4,-3,-1,2,5,-20
1,7,8,1,-3,-9,-19,5
-15,-7,1,-1,-1,8,4,-14
-15,-1,-5,-1,-1,2,-14,-2
27,5,4,1,0,-3,-14,3
-19,-11,-2,-2,-2,-2,-1,1
-10,-6,-19,-9,-3,3,3,-1
5,2,10,-12,-19,-38,-54,-31
4,7,19,27,19,46,42,42
-18,-6,-8,-10,-4,9,35,-2
-23,1,1,-4,-6,-16,-29,-42
24,2,-11,-9,-4,4,-8,7
-23,-10,-9,-11,6,-28,-20,-8
1,-1,1,2,-12,-24,-20,-6
9,0,2,-2,0,17,37,1
4,-3,-3,1,-5,-2,-30,-7
-15,0,-2,-6,-9,-27,-53,-44
14,-10,-11,-5,11,29,43,53
-39,-10,-2,-2,-6,-2,14,-4
-1,-4,-1,-4,-9,-8,-55,-37
27,3,3,7,11,10,22,41
-37,-16,-9,-5,-8,2,16,-3
11,12,3,7,14,-15,-20,-2
17,-3,-3,2,4,6,47,9
16,-5,-11,-10,-19,-24,-46,-26
-9,2,5,4,0,-26,-27,-13
61,24,11,9,7,26,1,34
-16,-7,-6,-9,-9,0,48,-6
-13,-3,-6,-3,7,-15,-50,-16
36,15,10,6,19,44,75,22
-15,-7,-4,-4,-9,-4,-3,-7
0,-2,-2,-6,0,-10,-4,-4
-14,-6,-5,-7,-11,-6,-13,-5
-9,-1,-2,-5,-3,-3,-14,-7
-29,-16,-2,-1,1,0,-15,6
20,17,3,5,8,5,-11,12
-21,-12,0,-3,-1,21,26,-8
11,14,10,7,-2,-9,-37,-6
2,-12,-6,0,6,-2,39,26
-5,-5,0,1,-9,-5,-17,5
-15,-6,-3,0,1,9,21,-10
18,10,3,-3,-9,-24,-35,-21
-19,-10,-3,-3,-2,-3,-22,-23
-12,-2,1,3,7,21,15,13
-10,0,0,-1,-4,-3,2,7
-15,-15,-8,-3,-3,-10,-15,-8
-4,5,3,0,0,9,6,-3
21,3,1,3,2,3,3,5
10,3,-1,1,-3,1,4,1
-26,-10,-5,0,-2,-2,-2,0
-20,-2,6,2,-3,1,6,-12
4,6,-1,-2,-1,-3,-6,3
-25,-11,-4,-2,-1,0,0,0
23,6,-4,1,-2,1,5,5
-3,17,10,3,-1,-4,-5,2
13,16,10,2,2,1,-8,-3
-18,-32,-48,-31,-16,-1,6,0
-27,-18,22,11,1,-7,-6,-8
43,16,1,12,6,5,1,-1
-8,-4,3,0,4,6,3,6
29,15,17,10,3,4,8,5
-13,-5,-21,-17,-12,-9,-8,-4
5,4,9,-1,-1,-1,-3,-4
25,4,-5,-2,0,4,3,13
-1,-1,-4,-8,-4,-2,0,0
-2,-4,-4,2,1,-2,-2,-3
-25,-9,2,1,-1,1,0,0
-2,2,-5,-2,-1,0,-1,-2
32,21,4,5,1,-2,-1,-2
21,-6,-11,-17,-7,-4,-1,3
-21,-2,2,19,3,9,-1,-3
-12,3,33,10,8,2,4,3
14,9,1,1,2,-14,-3,8
10,7,9,6,1,2,10,2
0,-13,-21,-21,-13,-9,-9,-8
-12,-10,-16,-7,-8,-3,-8,-7
-5,-2,5,8,9,11,5,7
-39,-6,-3,-5,-4,-5,-8,-13
-14,-15,-9,-9,-4,-5,1,-3
-21,7,-7,-1,-2,-5,-9,-10
-28,-16,-1,-2,-3,2,6,-2
17,12,-11,-8,-1,-3,-4,2
3,1,13,1,6,2,3,-2
-3,-1,20,23,11,7,6,5
28,17,3,-1,-3,5,1,2
6,-5,-8,-10,-4,1,0,1
-5,0,-8,-9,-4,-5,-5,-6
-14,-18,-13,-4,0,-2,1,-3
2,-6,4,1,1,2,2,-2
-30,0,8,7,1,-4,-6,-8
-1,-4,-11,-4,-2,-2,-1,8
2,-11,-25,-15,-7,-5,-3,-10
0,6,19,11,3,3,0,0
8,1,5,7,2,2,1,2
34,3,2,2,-1,-1,-4,2
-29,-16,-9,-13,-4,1,3,-3
36,21,19,11,3,2,2,10
-3,3,8,3,-3,-3,-4,-3
-29,-11,-20,-14,-6,-2,0,-2
41,-21,-45,-40,-12,-2,-6,2
-46,11,53,46,16,3,1,-6
-19,-7,7,11,3,4,-2,-1
0,-8,2,0,-2,-4,0,-6
1,-4,-16,-18,-8,-6,-1,2
-14,-23,-56,-30,-11,-5,-5,-8
-47,-12,-6,-7,0,2,2,-1
35,26,27,13,4,0,-2,-1
11,14,19,14,5,3,1,7
4,-4,1,-9,-5,-5,-5,-5
4,-2,5,18,1,-4,-2,9
45,17,-25,-29,-10,-7,-14,-12
-35,-10,11,21,2,-6,1,0
-18,32,-3,-12,-2,6,17,-1
35,-27,-2,7,6,8,8,5
-12,9,37,16,4,-1,0,5
56,10,10,10,1,-4,-10,-8
-14,-13,-35,-18,-8,-4,-10,-6
16,6,-2,-8,-9,-6,-4,-9
-42,-13,0,-12,-1,-2,-1,2
57,22,-9,8,2,2,-2,3
-22,-6,29,17,5,2,4,3
-6,7,17,-4,0,3,0,-5
-11,-36,-9,27,11,8,5,10
-24,-1,-6,-14,-8,-28,-21,-27
-11,-16,-13,-10,5,43,5,-2
24,16,-11,-10,-12,-9,-16,-6
-8,-1,-7,-7,-4,-45,-3,13
3,-5,9,8,8,44,69,20
-22,-1,-2,-1,-13,-62,-36,-13
-16,-2,-2,2,-2,-9,-2,-5
35,-2,-11,-9,6,62,11,15
-8,3,4,-5,-10,-1,-107,-42
20,-9,-7,-8,-19,-46,39,19
-3,4,-6,-8,7,24,-22,16
1,0,-2,3,-9,-41,-53,-33
-55,-15,-4,1,10,19,-21,33
-93,-25,0,-3,-20,-36,31,-63
39,10,-18,-5,11,13,-41,1
76,24,16,9,6,34,106,66
-26,19,29,15,-3,-25,-96,12
-8,7,5,6,-19,34,27,116
-28,-13,5,2,12,-14,-76,-80
-41,-14,-27,-25,-44,-8,-106,-85
52,15,1,11,82,55,119,107
121,37,25,27,16,22,74,61
-60,8,11,12,-6,34,54,-76
-62,-30,10,-5,-15,-34,-89,-27
-14,3,-12,-13,24,30,-44,-71
-47,10,-5,18,35,17,-26,-87
76,-13,-15,-29,-48,73,19,113
-66,-14,-5,37,21,-38,127,76
19,36,32,6,-74,-55,-117,-58
-11,-66,-20,-20,10,124,43,-62
20,23,-3,-4,-20,-91,-23,-16
13,-19,3,24,40,-29,82,52
22,8,-9,-32,-94,-33,-29,55
54,24,6,-3,69,72,53,17
58,22,49,55,40,41,84,51
-63,6,-13,-12,7,-32,-105,-112
-97,-54,0,16,33,64,48,-79
33,34,10,5,-17,-77,48,47
-4,-8,3,16,21,39,19,17
15,6,15,-5,-5,-32,-13,58
-25,-6,12,38,93,44,-35,95
35,29,-35,-37,34,-106,-128,-27
-54,-19,6,-8,-47,-74,-2,126
-60,-29,-4,-22,-20,97,-66,-51
72,8,7,50,34,-26,127,41
-67,-28,-51,-59,-66,-98,-120,-94
-14,4,3,21,48,58,34,-43
113,24,-7,-20,-57,-14,30,74
-27,-34,-20,-25,9,-74,-50,-114
8,3,53,54,61,63,90,113
-62,15,-1,-16,-53,-83,-118,-106
-63,-31,-16,-4,59,91,28,-68
-14,6,12,1,-29,-29,12,85
28,19,4,-13,-54,-99,56,-3
55,-31,-33,-24,-63,24,-50,-64
41,51,12,29,34,34,127,127
68,23,12,-21,-63,-114,-65,-63
-128,-81,-35,6,7,-52,-128,-128
104,49,20,-15,-53,-72,72,80
118,44,-7,0,41,37,-128,-108
19,15,0,8,39,77,48,-38
3,2,28,2,-125,-27,68,127
-107,-51,-48,-26,77,89,35,-87
40,19,62,76,43,97,88,87
-73,-33,-38,-16,-28,-45,-66,-33
27,26,21,26,41,17,127,92
15,-16,6,-5,-27,-78,-123,69
-23,4,-32,-31,-90,18,-41,81
-39,-49,-15,-5,-9,23,35,-61
-29,24,42,5,-79,10,-91,-49
-75,-45,-48,-8,42,-1,101,21
19,23,4,-16,-72,-108,14,17
-30,-9,-11,-3,33,93,107,12
37,10,1,25,37,71,78,30
-59,-19,-45,-47,-64,-116,-99,-57
-33,-24,8,-15,-20,-80,-123,-12
-8,34,48,39,-9,-73,114,67
-6,-9,-7,-7,-8,29,-112,-1
29,3,-17,7,64,88,-88,61
-33,-8,-10,-2,-28,4,-29,-21
76,9,7,-25,-46,-73,-128,58
93,5,25,37,89,97,103,5
47,69,14,8,-16,-92,-76,5
-73,-32,-5,-6,-24,-72,-128,-99
-19,-8,-19,13,70,85,-46,-61
-59,-31,-17,-28,-57,-53,-68,-125
-95,-42,12,-8,-52,26,-33,-82
64,37,-31,-16,82,74,-34,63
-73,13,11,-19,-49,-73,-109,-75
45,4,-15,-19,-15,46,47,43
-53,-16,37,52,71,65,-41,-74
-42,-17,-18,-42,42,30,-48,-101
62,-20,-13,-8,-65,-44,127,117
-29,-11,-27,-13,75,-34,-128,-108
26,20,14,3,-36,75,127,30
85,22,27,18,-40,-65,94,-27
-1,-39,-54,-52,-56,-33,-114,-68
-9,4,-8,-2,-50,-44,-105,35
30,22,-1,24,29,-2,89,-47
-113,-15,33,28,32,20,-47,-118
34,31,8,-4,15,25,-74,-54
-39,-9,-50,-32,-54,0,-28,-35
-35,-33,-9,-1,61,48,58,-81
6,-7,-9,0,-30,-49,127,127
-37,0,-1,-19,-60,4,-94,26
-38,-15,-1,3,84,-1,-79,93
-6,20,42,45,82,-3,89,123
-87,-38,-20,-10,-68,-123,-69,-56
-25,-15,-10,-19,-2,21,-70,22
33,-16,2,-6,-12,69,93,38
25,36,20,13,2,2,68,70
-56,0,66,48,112,28,-100,79
97,8,-44,-20,-65,-84,98,-35
52,33,2,-10,29,79,64,9
9,-13,-15,-16,-94,-106,-128,-77
-19,-20,-10,-23,-20,102,10,-46
8,40,81,70,86,125,99,-24
-46,-14,-16,-5,-2,22,-17,-63
46,28,-3,-13,24,-44,-118,35
63,12,15,32,-76,32,48,66
28,-3,-26,-42,11,-59,31,-32
25,47,40,24,-14,-106,41,-74
66,20,2,2,-9,-38,-108,9
90,12,-36,-49,5,18,45,-78
12,-7,-6,6,-21,-60,-2,36
105,50,19,10,0,-94,-28,-11
1,-40,-29,-13,-54,-47,-41,6
7,-11,-36,-21,27,-11,-50,19
89,30,23,26,21,49,17,0
34,20,0,-14,1,-98,-121,-34
-89,-39,-19,-17,-90,-20,88,16
61,-18,-30,0,7,-88,-77,76
-19,-7,1,-7,28,82,-31,28
-8,-14,38,59,23,88,19,76
-11,1,0,-8,7,17,-50,-60
-88,-30,-5,-2,12,-21,127,-80
-90,-37,-22,10,1,1,-56,-106
25,-32,-41,-52,-90,-67,-128,-89
41,7,12,18,89,-27,-78,-8
35,25,23,32,21,81,100,42
-115,-49,-55,-20,37,-43,-128,-74
-45,-59,-13,-27,-84,60,32,5
-95,-15,9,-20,-6,-30,127,-16
61,1,31,13,9,3,-85,53
-78,-56,-54,-15,53,89,120,62
3,60,67,39,40,7,-71,-31
6,-37,-36,-4,-13,-92,-47,-51
-5,51,36,13,44,14,-50,-41
-70,-34,15,28,-15,86,-25,38
18,-19,-33,-36,60,123,40,-5
123,44,3,8,35,75,-43,76
-65,-19,0,-11,-78,-93,-103,-76
-9,41,-8,-27,-7,61,72,76
20,17,13,-11,-51,-43,35,49
-12,22,27,-7,-55,26,-36,-48
-42,-38,-68,-17,24,62,81,-49
102,62,57,22,-47,-56,-8,83
27,-29,-25,-8,-15,32,-72,111
-87,-26,-3,-9,15,15,17,54
13,41,18,20,-42,0,55,37
-8,-19,-24,-13,24,16,-128,8
-17,3,7,16,-14,5,-13,-20
30,-26,-27,-27,-93,-42,-128,-87
-5,20,14,10,25,5,17,-20
59,21,12,-6,-56,-70,-56,-14
-41,-8,-9,15,90,21,42,40
44,13,-7,-23,6,-15,-77,59
-44,-23,-10,11,-24,21,-113,-36
16,-5,-1,-1,-30,-2,127,-9
-26,2,-19,-31,-99,-121,-62,-102
55,35,31,27,66,86,127,102
69,25,-13,-10,-25,-61,-29,-27
0,-14,29,0,-19,-77,-122,-21
-35,-18,-46,-21,-43,-96,29,-47
19,-19,-5,7,65,59,127,53
-20,12,3,-18,-15,-97,-105,-70
-10,19,37,21,63,69,-49,92
-44,-10,-13,17,7,86,106,-14
-31,-13,-7,12,48,39,-7,-68
-25,1,-1,-25,-66,-16,-120,-37
37,0,9,6,-21,-60,59,111
-13,1,13,11,50,125,56,50
37,10,2,0,-28,43,-47,31
-28,-19,22,2,-17,7,-17,36
-1,15,-26,-6,2,-33,4,-71
-6,-19,5,-7,-34,-103,-104,20
-16,17,16,7,-38,-52,-109,60
-11,-13,26,65,127,40,115,19
58,19,-28,-16,12,-24,16,-104
-83,-13,-11,-12,-53,-93,-77,-28
53,3,19,-1,7,-70,-86,-51
-6,8,-33,-8,30,105,90,-41
3,-16,-8,2,-10,-21,-50,-36
27,17,5,6,24,9,-42,-29
5,22,4,-12,-27,-43,-73,-69
7,-18,-14,-27,-17,-21,-121,20
-26,5,7,3,-15,42,112,-3
25,18,-13,-16,7,-5,-49,72
5,-3,-5,-5,5,106,48,16
26,-11,1,-3,10,-7,29,25
-37,4,5,6,-3,-3,9,4
9,15,15,9,26,7,-14,23
-32,-10,-1,-2,-6,16,18,-20
28,2,-2,-8,-19,8,3,-5
19,-12,1,-7,8,-9,-122,-13
-35,-23,-12,4,43,124,-42,-31
-16,-2,-10,-2,-1,4,104,29
30,11,-23,-21,-17,-2,48,-41
-36,-2,1,-3,-9,-6,-58,2
23,-2,3,-1,2,-14,6,8
-7,5,0,-2,-16,-7,-43,-25
-32,-10,-1,-9,-6,-18,-46,18
-20,6,10,9,9,13,18,11
34,7,3,8,12,7,47,-6
-88,-11,-6,-3,-8,-13,-11,-23
32,6,3,-3,-17,-30,-16,13
-15,-5,-1,-5,-3,5,-5,-2
-7,-11,-3,0,4,-13,11,6
7,-1,-9,-10,-8,-3,-10,-2
-1,-2,2,-1,-2,10,-14,19
40,24,16,27,11,4,3,4
-7,-2,2,-3,-2,-8,11,8
1,-1,-5,0,-1,-3,-3,-1
-18,-5,-9,-12,-11,-1,-10,8
-23,-10,-6,-6,-2,1,12,-2
0,11,3,4,0,-20,11,-2
-4,-10,-6,-4,-4,3,1,1
-1,-6,-5,-8,-9,-7,-18,-1
-1,-2,2,-3,-1,3,-12,1
14,1,1,3,3,0,8,3
0,2,1,0,2,-2,3,-1
-24,-5,-6,-4,-5,-1,-7,6
10,-10,-20,-14,-6,-5,-6,-2
-6,-1,8,3,3,-3,7,-5
-37,-14,6,-8,0,-2,-1,-3
60,52,17,32,8,1,0,9
-20,-7,-16,-30,-12,-7,-11,-15
-17,-11,14,4,2,-2,1,0
21,1,-6,14,5,3,2,2
-7,-13,-6,-10,-5,-2,-2,4
0,-2,-11,-7,-1,-1,0,4
15,2,-14,-14,-6,-2,2,1
6,1,9,5,-2,-2,-3,-2
-25,-16,-13,-6,-1,0,-1,-1
12,11,11,7,2,0,-1,2
-2,-8,2,9,4,-3,5,8
6,6,5,-13,-6,-4,-4,-2
-25,-17,-16,0,0,0,-3,-4
-20,-13,7,-5,-2,0,-1,-1
11,13,1,8,4,1,4,-1
1,0,-15,-10,-3,-3,-4,-4
-5,2,-4,-15,-8,-6,-4,0
-9,-8,-1,-2,-1,1,0,0
-11,1,3,11,3,0,1,-1
17,34,22,16,5,1,1,4
-18,-1,7,0,-2,1,1,1
-23,-50,2,14,4,4,-1,-2
-29,-18,-19,-23,-11,-7,-5,-8
30,14,-20,-5,-4,-4,-3,-1
-12,-38,-7,-3,-5,-5,-7,-7
7,33,-12,8,7,3,3,9
28,-11,-19,-10,-5,0,1,0
33,19,56,23,11,10,9,13
-28,-16,9,-12,-5,-4,-6,-10
2,-15,-71,-23,-15,-13,-12,-10
5,-28,-23,-10,-4,-4,-2,0
-17,-16,2,-5,0,-2,0,-3
25,9,-5,11,7,6,4,4
15,44,66,10,2,5,5,6
21,83,60,-1,-5,-5,-3,-3
-9,-45,-28,4,4,0,1,3
66,-11,3,4,0,-2,-4,3
-19,-18,-22,-1,-1,1,1,-2
-9,-11,-3,-3,2,3,6,5
-20,3,-9,-7,-6,-5,-4,-5
-10,-3,-14,-3,-1,0,-1,-1
46,27,7,1,-4,-3,-2,5
-29,-40,10,2,7,4,2,0
-18,7,6,6,3,3,1,-2
-19,-3,31,-7,-7,-7,-4,-2
35,16,32,19,8,1,2,7
-31,-61,-82,-55,-19,-11,-11,-14
41,56,35,48,13,5,1,4
-42,-98,-19,8,6,10,9,4
70,118,55,17,2,-6,-9,-2
-15,-52,-27,-12,-11,-14,-29,-5
16,7,-62,-31,-3,1,15,-5
-22,55,15,1,-2,0,-1,-5
3,-62,-23,-1,-1,1,1,-5
23,114,92,44,16,11,7,19
21,-95,-76,-31,-19,-13,-12,-16
-4,16,10,5,0,-2,-3,-1
-60,-52,-36,-10,1,2,10,5
77,-2,4,11,-1,-3,1,6
25,59,117,31,16,11,-46,34
-65,-91,-85,-31,-23,-14,68,-66
-20,-6,-22,-3,-1,-4,-26,-10
-36,-6,-20,14,10,9,16,3
-128,-91,-57,-33,-18,-11,-15,-24
21,96,96,48,20,9,-19,21
64,8,14,-20,-14,-10,-7,7
-43,-43,-42,15,8,7,15,1
45,-20,-1,-14,-11,-9,-1,-1
-63,22,6,7,5,4,-10,7
17,30,20,-7,-4,-4,9,-5
55,42,89,49,24,11,-37,11
23,79,-41,-23,-8,-2,64,-10
50,-46,-19,-22,-12,-11,-18,23
-75,-38,18,23,6,3,-4,-14
1,-20,-85,-32,-11,-3,6,3
-98,-52,48,46,18,8,-13,4
37,124,58,-11,-9,-8,12,28
-7,-36,-25,-9,3,4,-2,-34
40,104,42,-12,-11,-12,-5,-19
42,-44,35,2,2,2,5,20
3,8,19,25,3,-2,-18,3
4,-102,-94,-33,-3,3,9,-2
-72,-84,3,-9,-7,-5,-1,-13
5,24,-67,-22,-8,-5,22,-5
77,72,24,13,5,2,-13,13
-32,84,43,0,5,6,-39,-14
26,-49,6,-2,-23,-20,64,-26
-13,96,67,16,1,-4,-24,8
17,-67,-75,15,14,6,-66,45
-90,-48,-73,-5,9,59,108,-2
87,127,17,6,-17,-15,4,42
97,87,-31,-16,-5,-12,-14,-15
35,87,63,22,5,9,-2,-8
127,127,31,13,0,-23,-37,72
-77,-40,-100,-84,-38,-34,-27,-47
-17,-80,-1,55,15,38,-11,-3
-63,-53,61,62,39,2,-4,0
-87,53,-80,-20,2,13,39,50
6,104,119,108,85,62,57,67
-94,70,-36,-24,-6,-41,-36,-89
78,22,66,68,21,-62,-20,-6
-102,-5,-10,-38,-34,77,-27,-44
-128,-101,-121,-84,-51,3,-83,-38
-13,-70,-10,-86,-20,-10,12,-76
-88,55,28,53,64,46,115,-74
-50,27,-53,-33,24,-10,-49,-19
102,-26,65,-101,-83,-59,-49,49
-91,-62,21,34,22,-107,-82,-40
44,-73,-128,-128,-45,89,59,-19
3,-96,-35,-4,12,-11,102,51
-63,34,35,78,6,26,-100,-122
125,2,-75,-52,12,-60,14,127
-109,-55,-108,-58,29,50,58,-5
23,-23,36,17,20,-83,-56,35
80,-13,44,67,29,81,127,38
48,78,42,-3,-39,-66,-101,-35
22,77,3,-21,-63,-112,-106,-19
28,-69,25,-11,58,70,86,69
-90,-83,-35,-8,-38,-107,56,87
-80,67,55,25,13,-26,-31,-77
72,-32,-7,-32,2,83,85,102
-51,-66,54,-8,-18,32,-127,-105
-64,-66,-92,-58,-67,-128,-115,-128
35,22,-51,12,100,127,127,127
-75,-44,-9,-64,-95,-128,-128,-93
58,4,-35,-17,-92,-128,60,49
115,50,50,50,127,127,127,85
32,-24,-64,-128,-98,61,-119,-128
46,-3,5,32,-67,-26,63,70
-73,-1,77,-48,-102,-40,-36,-86
-31,-84,-118,-109,10,3,-128,-89
69,54,92,102,55,38,127,92
-57,-46,-93,-106,-59,-74,-128,-114
-10,11,-68,-3,17,-7,-83,100
77,68,-59,-9,36,-118,-106,-14
-34,-35,44,106,-25,116,94,-61
-36,61,95,64,62,101,-54,-26
-30,-20,-42,-43,-79,-106,-69,-30
-44,-29,-73,-108,-36,116,109,-9
88,46,73,114,30,-85,-46,127
-20,-46,-105,63,-23,-114,-48,-58
-44,-25,-43,25,56,-24,107,-4
64,125,99,41,42,93,35,105
13,-87,-128,-126,-125,-111,-100,-88
-42,-124,4,-44,0,102,-5,111
15,72,127,127,127,36,50,100
-109,-82,-40,-24,-76,-128,-127,-12
-20,-21,-107,-98,-8,77,106,60
102,19,72,73,53,-73,42,-64
127,4,-39,-51,-16,91,-33,-85
74,87,1,-1,8,-10,-82,125
-29,-66,21,29,28,94,27,-13
84,101,-13,-32,-4,-9,85,-10
-67,-65,13,-49,-70,-11,-24,59
43,63,20,74,50,53,5,-128
-126,-112,45,19,39,-27,-128,-71
12,-13,-68,-115,12,92,-52,-35
127,49,-83,-73,-72,-128,8,31
18,41,-47,-4,-65,37,-36,-54
-52,-81,-50,-77,-2,-61,78,72
-89,-39,-67,6,-28,43,-11,-88
68,-24,-38,24,69,77,-56,-22
-128,-39,68,28,3,21,-56,-110
127,28,-24,-45,-84,-120,-69,56
-128,-47,-119,-64,-76,-62,103,40
23,-30,109,77,82,89,-128,-128
57,56,103,110,-36,-128,127,78
-18,-52,-81,-82,-82,12,-128,-128
103,-48,-54,38,60,-5,-53,89
-52,48,0,-112,-90,-63,-6,-127
4,32,105,103,29,-36,-103,67
-2,63,72,76,-41,-31,45,69
57,-15,-89,-88,88,89,-30,-52
-54,95,78,96,-21,-87,-23,8
-128,-95,-114,14,74,87,80,-113
-15,43,5,-33,9,-49,-64,-93
-61,18,17,3,-46,-16,-45,56
53,-2,0,-54,-9,27,24,97
63,-56,22,30,4,24,-52,95
-89,-100,-80,-25,-18,69,-92,-59
96,84,127,63,23,-11,-14,-103
-27,-87,-22,-63,-40,99,95,4
-25,14,-113,-58,40,59,49,-13
108,120,25,-35,-16,72,98,-8
-100,-128,-85,-52,-67,-124,-128,-41
-40,7,-82,-64,-84,48,-60,27
-34,-128,83,68,49,-16,3,-19
59,123,-119,55,88,75,19,46
-2,-47,6,76,120,48,33,127
-86,107,74,108,6,-83,-74,-44
96,-2,-69,-128,-110,-93,-17,12
1,-126,-26,13,48,57,85,-36
-33,113,103,66,46,-2,-55,91
-8,109,42,55,46,-24,127,36
70,-78,-118,-109,-91,-128,-128,52
78,84,127,91,-21,-128,-69,-86
80,6,-55,-100,-101,32,104,39
57,3,-10,64,42,-15,38,-93
-32,-54,43,23,21,86,-95,-95
-28,14,-53,-93,-61,-125,41,66
2,63,81,-5,25,92,-49,-4
-62,-120,-70,79,124,84,-57,-58
16,127,98,28,-20,27,58,102
-18,16,35,18,75,47,16,63
-4,-104,6,-27,-116,-80,47,-70
79,36,98,97,91,17,-49,-33
-57,25,-55,13,-19,-84,-79,-128
-34,-14,-14,-56,-29,72,-76,23
76,-33,100,46,21,42,24,28
5,-59,-37,-128,-51,44,-73,-64
-120,-39,-128,-110,-98,-69,-63,-64
108,127,123,123,123,-9,-14,35
127,99,-18,-26,-84,-91,30,-17
-47,-120,11,46,59,85,-32,-30
-55,-54,-75,-101,8,86,90,90
-128,-128,-63,-59,-102,-36,38,-94
-78,-12,-69,51,83,66,93,-78
107,61,82,31,-4,-88,-42,1
31,-35,91,36,-60,-36,76,79
11,11,18,-13,18,-67,-75,65
-47,-23,-128,-51,2,90,80,34
-115,-109,-95,-6,-128,-128,-113,-72
127,102,127,43,103,5,-47,-27
20,-128,-67,-53,7,-34,42,84
-105,-17,-19,-47,-65,-117,-115,-98
-8,-23,-68,-43,0,14,100,86
51,41,127,49,-15,20,-2,-41
-51,-70,-113,-89,-72,-53,-73,-15
70,-11,106,104,-7,1,33,102
52,25,-49,-99,88,127,-51,16
87,1,-128,-128,-98,15,95,-124
-49,-95,6,121,99,27,79,63
-62,23,-54,-37,43,-58,-63,-12
23,-34,91,-112,-22,-46,-49,53
-44,32,-110,87,31,24,58,76
74,22,89,86,60,127,100,27
110,127,32,48,48,-78,-97,-62
-34,-14,78,88,-33,-70,127,-54
32,52,-61,-120,-29,-34,-76,64
-4,-7,63,88,-44,-17,66,14
10,-56,-110,-117,-78,-40,-120,-100
-31,44,27,77,18,62,-24,64
64,-105,115,63,8,29,3,45
-3,127,-37,-62,-6,-1,-7,-128
109,91,-56,-100,-46,112,-18,90
-49,90,-4,39,-51,-38,18,32
-93,-94,-93,-38,123,122,-37,-15
-6,-53,-52,-103,-55,4,36,-63
-78,-16,26,5,32,-51,-128,-72
38,7,-117,-1,56,-3,127,46
34,71,91,-10,-56,-72,-26,0
44,-49,-97,-123,-98,9,-12,14
62,86,124,107,104,109,127,109
127,20,-90,-105,-106,-72,-91,-29
-120,-47,63,-17,3,-87,-63,-128
22,81,-72,-24,-16,-9,-75,27
-93,-113,-46,-52,-43,3,30,-88
-33,65,8,2,8,-31,-63,-24
-13,-47,-86,38,3,55,-94,-32
89,127,127,54,-72,-20,21,63
-94,-62,28,84,119,120,123,-32
-28,-128,-122,-128,-128,-101,-110,-128
47,35,49,57,26,11,80,127
-54,-84,45,127,104,46,-128,-128
39,83,-90,-79,11,59,78,75
56,19,110,127,54,12,-41,-64
-36,40,-27,34,-14,-13,-48,-70
82,54,24,7,16,-103,-21,77
75,-76,-6,3,-16,-18,61,2
18,109,78,-46,6,27,-116,-21
-69,-84,-90,-98,-17,-40,107,-32
40,71,-57,-59,-11,-100,-94,-68
-87,-122,-74,-49,-40,-2,-116,-45
77,123,-42,-74,-27,-39,108,59
-97,-89,-65,-27,-47,-73,-113,-90
49,22,76,55,24,39,127,127
43,-57,-74,-80,19,61,-128,-41
-71,-128,-21,-36,-92,-36,127,-53
37,59,64,46,115,92,13,121
-105,-84,-83,-128,-28,-19,-83,-21
51,-21,-32,-11,-128,-128,-128,-9
-88,38,68,127,125,127,118,127
19,-13,32,64,-5,-74,-77,-128
-101,-65,-24,-62,-76,64,-68,59
29,62,73,51,61,-86,90,12
28,-29,-13,-56,-12,27,12,-10
-33,52,-14,-41,-71,-81,127,-28
20,41,-66,-42,62,127,-32,-107
12,11,85,120,-12,-88,-106,-28
11,82,-51,-68,-41,-15,-15,-68
32,-29,-85,-62,-39,23,-71,-51
18,-57,98,127,28,-79,-90,-12
-116,-43,-128,-128,-128,51,76,-72
-37,28,106,108,98,75,94,65
33,47,-1,97,95,127,33,50
66,23,7,-53,78,-45,-102,7
-40,47,65,122,-5,36,107,21
92,-128,-128,-102,-54,-21,9,-22
-75,-26,57,37,-128,-64,-60,-104
26,-60,-83,20,10,44,12,-51
46,103,64,2,25,-44,-9,-17
-94,-92,-114,-3,29,3,-128,-54
29,-52,-92,-104,-20,-76,127,90
2,105,97,93,-50,-75,51,-70
56,-19,60,73,41,-7,-97,-69
-77,-117,-128,-125,-80,-128,-123,-128
69,117,47,8,-10,-28,43,-88
-126,17,-31,-57,-88,-68,-12,-25
11,-23,-69,-34,35,-19,-35,94
-45,31,53,22,-59,2,-37,3
-22,-67,39,30,120,127,78,121
-40,33,34,-51,24,1,-23,-66
-9,94,86,87,45,-17,-34,-51
121,-19,-72,-111,-89,-83,-85,23
-66,-48,31,70,100,87,-1,-66
-65,-128,-128,-11,-99,-85,49,-24
119,62,27,-46,57,-77,-126,56
-18,17,127,127,22,64,97,52
-3,73,-32,-103,-76,-128,-40,-58
-12,-66,-56,-57,5,102,1,-91
-31,98,64,77,75,40,35,126
-41,-50,-120,-127,-61,-55,-92,-54
-11,-44,-83,-89,-30,112,-128,-75
-42,92,10,-5,-7,-9,74,77
-127,-95,51,-4,-49,-26,-73,-34
-45,70,-8,28,76,48,94,23
8,-128,25,46,-78,-31,-110,50
42,81,-74,-22,69,11,-41,-97
-3,-67,-128,-66,-73,-91,82,-38
-59,95,127,127,45,127,91,12
61,-55,-102,-48,58,63,-10,-64
15,-6,14,0,-39,-30,-94,108
9,1,-103,-99,-100,-72,-2,-29
-66,42,-50,-32,35,-44,-46,-39
93,114,90,98,51,-94,-35,-8
-45,-63,47,-2,-34,13,60,16
82,72,-67,-44,-26,-34,-29,-53
-36,-75,-52,5,-34,-72,-70,-43
51,127,63,25,-19,-1,7,65
67,93,104,42,69,12,56,-65
52,47,26,-38,-81,-2,-63,47
-42,-109,-98,-83,25,31,68,110
79,87,97,88,42,-50,29,84
35,-33,-109,-62,-45,-51,-49,-69
-102,17,86,99,28,39,85,-2
127,19,4,-59,-51,-68,-128,-75
-24,-104,-128,-91,-60,-83,15,-85
-73,24,80,64,53,-18,61,119
-63,-112,-44,-83,-52,-87,-76,-6
82,-70,-42,42,26,30,-77,-71
-47,-86,-85,-128,-40,14,-48,-20
-7,-90,-65,-17,-35,28,-47,-52
-71,49,93,45,20,25,28,-47
61,-11,-60,-42,6,46,31,-5
54,61,99,69,-5,-68,-49,-1
25,-128,-126,-42,52,100,41,109
-84,-34,47,40,75,127,25,15
12,29,50,-24,-71,-14,-122,-37
-128,-80,-40,-85,-85,22,127,74
-41,-5,15,50,69,32,-128,-128
127,-5,-91,-40,17,-11,59,15
-13,46,35,-32,-2,23,-36,-96
-33,16,-38,86,82,-72,-128,43
119,114,127,91,-95,93,127,102
-56,-117,-86,-22,92,106,-128,81
-13,-26,-6,-42,8,33,65,28
-33,44,30,21,-24,-63,-69,3
-19,-61,-121,-89,5,-96,-64,-66
-57,67,12,29,-24,-22,20,1
127,102,71,62,8,-57,-14,12
-5,10,-27,-16,-1,69,-7,44
21,30,-7,-39,-24,-38,47,47
-41,-124,-115,-128,-55,2,-33,-58
-89,58,-26,19,60,10,53,127
89,-98,-85,-67,-43,61,13,-80
80,108,105,72,-56,-107,-128,1
-28,-110,-90,-87,-76,-21,68,-92
112,96,76,80,6,-26,-47,-68
64,38,104,115,101,-10,106,88
-20,-128,-128,-128,-117,107,95,2
10,119,127,127,127,-39,-107,-56
-6,5,5,-74,-75,-21,37,-40
-37,14,-90,-88,-46,-24,-124,-41
33,24,-61,-10,15,-63,-111,-61
48,-25,34,4,26,34,81,-39
-113,-128,-50,-41,35,37,-9,6
80,112,85,-26,-64,-57,-74,34
19,-21,-5,-17,-49,-36,82,-27
52,37,-29,-54,0,60,6,40
37,-116,51,49,7,22,-128,-106
-84,110,82,83,55,64,127,-95
-57,-70,-4,25,10,-43,-21,0
33,-50,-128,-128,-106,-30,-15,-128
65,100,84,122,104,80,116,91
-82,-128,-128,-128,-52,39,-84,55
-2,87,127,127,32,-63,68,-36
76,-8,-1,-8,-64,-83,-46,59
127,112,-55,-55,45,82,18,-32
-73,-128,14,17,-32,-112,-124,-106
-3,117,-29,-78,-16,74,92,59
-16,-79,113,120,5,75,-10,-47
6,17,-84,-14,55,-66,-68,53
-56,-28,52,12,-33,-56,10,-15
-75,49,19,-75,-28,-75,-122,-101
-16,-62,-52,-5,12,57,100,42
29,54,33,-87,-64,8,-12,-49
126,33,39,92,40,41,-20,21
-20,-33,-15,-27,79,50,10,24
-103,-88,-87,-81,-105,-50,-20,-21
45,-37,30,98,13,-128,-99,105
-23,64,32,-62,35,121,81,-74
-32,-42,6,103,127,92,27,98
127,55,-86,-96,-79,-111,-89,-36
-90,-14,51,84,-74,-69,-72,76
32,-3,-80,-38,56,68,45,97
-63,-93,21,-5,-17,-6,13,-18
23,68,27,-2,39,2,-17,-38
-21,-128,82,68,-44,-39,-47,-32
35,-15,8,0,20,-4,83,90
30,-41,-89,-48,-93,-114,-56,15
65,68,25,75,96,127,99,121
-28,54,10,-30,-25,-56,-73,-125
-65,65,6,-40,-9,-60,-112,-71
0,35,-91,-3,104,102,65,-44
-126,-37,78,86,-59,-21,37,-6
-55,-107,-13,41,24,0,127,-71
96,-4,-33,-26,45,20,-18,-42
90,87,-16,-54,-19,33,-77,54
-62,-3,-36,-23,-28,-54,-3,-115
44,-72,-128,-97,-83,110,71,51
-18,-56,21,5,21,-33,-93,-128
63,-104,-105,-89,-26,3,16,26
-6,58,44,86,57,11,-41,12
-39,21,29,-25,-34,-9,17,-9
-71,-83,-127,-60,-78,-22,-17,-32
102,30,27,-13,-35,54,-108,-88
-63,-4,46,40,36,-40,-49,63
-45,-35,-63,-13,3,-46,9,75
-62,127,64,13,-1,-18,-49,-81
63,-46,48,39,12,11,85,12
-12,-41,-46,-49,-48,53,103,-20
118,101,61,-14,86,-9,-87,-58
-27,-103,-20,-5,-119,-67,-34,127
64,89,69,68,115,27,51,66
127,83,56,17,-17,-100,-101,67
27,-72,-128,-55,32,27,-28,-13
-4,-6,57,9,33,46,82,-1
-76,-57,103,90,-48,36,15,-85
95,54,-39,6,-1,45,29,-50
-4,1,34,-33,-36,-11,-95,-19
78,43,-6,15,6,-35,60,70
36,-80,-105,-50,-38,-25,-55,-57
28,45,-20,-101,-86,-90,-96,12
-49,72,-93,-77,13,-56,106,-113
-65,-80,69,88,4,2,11,-40
56,73,72,26,-66,-120,-59,-61
90,83,15,24,119,85,-128,-64
-110,-108,-92,-57,-20,-81,-77,-54
120,74,-118,-91,-3,79,127,29
-86,120,100,127,-42,-128,-114,-88
-14,-87,-36,17,47,67,-34,-85
-10,34,-38,-7,-5,46,127,127
44,-24,-111,-96,-65,-34,-33,-79
-35,-27,61,34,15,-10,-93,-2
-49,-118,-124,-89,-87,-84,-4,14
40,121,92,104,102,72,-9,99
-97,-92,-53,-42,-91,-80,10,-114
-49,54,-52,-28,75,38,58,55
102,87,53,-2,-30,-31,35,29
-76,-58,-50,-100,12,17,-74,-79
-15,127,125,114,31,70,-91,-78
-108,-123,-88,-99,34,-31,-50,-44
-14,75,32,37,6,28,91,37
45,-42,59,23,-26,97,-17,-75
46,62,-71,-11,57,-35,-85,-39
37,-30,-70,-36,-48,-45,112,-6
36,-67,-74,-94,19,92,60,-59
37,-41,10,58,-113,-107,-48,74
-63,-10,91,81,119,121,-37,11
-83,-90,-34,2,-44,-5,98,91
62,-22,3,-13,-26,-76,-123,-61
67,-19,-88,-85,-91,-31,55,71
123,70,96,104,56,45,-87,30
45,30,47,-7,2,-46,-38,19
-41,73,-21,-49,-10,-3,86,-85
-14,-23,-35,15,27,-3,0,-9
8,22,15,7,-11,-96,-67,19
-57,-49,-48,1,14,123,35,-73
-43,-37,-55,-26,-38,-92,-65,-63
3,-45,-25,14,42,-14,-103,18
-58,-77,-61,-47,-13,-25,127,51
104,61,75,74,85,72,-22,92
-65,-7,34,16,-39,-80,77,85
2,-12,8,2,-29,66,17,-57
-56,-128,-113,-103,-91,-24,-6,-59
70,119,92,82,70,26,3,-11
-74,-120,-118,-81,8,54,-90,-21
-10,-12,-15,41,6,-55,85,19
50,57,-47,-29,-11,-13,-30,29
78,63,60,31,-15,15,-67,-38
-59,63,-62,-14,-23,4,34,-67
17,-12,123,34,46,-10,7,-64
-55,-118,-125,-97,-32,-42,-33,-11
-11,68,4,-78,-32,-128,-44,-55
99,89,64,44,-10,80,57,-1
-58,-34,-54,-21,50,74,36,-47
37,35,1,1,-87,-49,95,43
52,-45,-30,4,-9,-128,-99,-55
-55,-59,-36,-39,-10,75,34,68
-19,19,79,92,53,16,106,40
100,10,-2,0,93,92,70,40
51,-5,-61,-73,-119,-53,-87,-25
-26,-128,-54,50,50,-81,-60,-16
-74,127,5,-80,-61,-37,-76,-2
83,123,87,36,51,-20,-40,55
-116,-73,-110,-107,-66,-6,-42,-78
92,57,-39,-73,-6,-2,-51,-27
-73,55,-61,-6,-30,-25,-71,66
-44,-7,35,-44,-88,-71,39,-52
-31,-32,-121,-34,54,83,91,66
32,8,75,64,-53,-55,-31,-14
-4,-88,-77,-34,16,3,-48,-58
-46,105,62,9,19,113,68,-35
-4,-52,13,26,-8,-12,-75,-58
-121,-45,64,100,64,-2,100,13
-30,-69,-66,-17,-15,-8,108,36
35,-66,-36,9,47,8,14,5
-128,-31,20,13,12,30,24,94
71,-21,-37,-12,45,-17,-48,0
-42,34,127,104,-29,-86,-82,-37
60,-115,-128,-128,-62,-5,12,-20
74,101,71,23,-1,-29,-26,-50
-10,-99,-37,-48,-28,-3,-34,46
-47,-36,-64,-30,-32,4,-73,-84
103,85,118,60,20,-128,-128,43
-34,-86,-55,-38,7,33,41,55
115,0,-39,-6,-17,112,95,21
127,-31,-35,-86,-45,-34,66,24
7,79,75,99,105,94,-105,42
7,-62,-48,-88,-97,31,118,79
-30,-8,-44,-50,13,-115,-34,1
62,80,-10,-3,80,60,56,75
-67,-14,83,97,40,21,19,116
19,40,-67,-77,-62,-96,-77,-77
-84,-19,-51,-32,-7,70,4,8
6,-59,56,42,14,91,2,-88
39,74,59,65,-4,-13,-30,7
-92,-10,-25,74,22,-9,-36,-103
-105,-82,-36,-17,-20,-105,-17,40
80,-43,45,6,-14,59,32,25
2,-20,-100,-128,-104,-22,-36,-72
-50,-72,13,60,83,34,122,-29
12,99,78,1,22,-48,-84,-15
-31,-67,-100,-50,-81,-88,16,-109
15,-6,-54,-38,59,77,8,-25
32,-56,89,85,24,127,-26,43
16,-65,-72,-57,75,-33,-14,-95
-83,49,81,79,8,6,102,103
62,-60,28,24,-4,-122,-66,-48
-70,-30,-104,-126,-52,15,10,-70
93,15,94,106,30,-7,-61,58
6,-29,-40,30,51,0,-6,13
-120,-6,-128,-112,-81,-84,-27,-92
66,32,116,112,60,24,-80,49
8,41,-111,-87,-91,18,68,60
66,-25,52,48,96,48,-47,-77
70,99,46,-7,-81,-75,-42,-86
-35,80,-25,-28,79,37,-3,61
-1,59,76,104,-20,-40,29,-37
106,105,-21,-74,-25,81,-11,51
-37,-114,-76,14,-19,-16,51,41
-46,-73,-51,-90,57,49,55,-51
-54,99,127,127,-24,-30,-81,27
-128,-96,-64,-22,47,-37,-49,-86
0,93,8,21,-103,-36,8,1
83,4,52,7,15,58,-15,13
26,8,-63,-47,-1,101,47,69
112,81,59,-35,-62,-53,-3,50
45,-31,-62,-73,15,37,-55,31
41,-40,-50,-22,-31,-100,30,43
-65,-29,77,17,29,41,11,-116
-25,111,67,-74,-50,-28,-109,-3
-24,-124,-1,51,12,-45,-13,-24
-33,8,-14,5,71,66,26,84
44,-11,-66,-12,-51,-8,11,-31
36,83,-17,-73,-21,37,-8,106
-128,-122,-86,-41,9,37,-2,-77
80,112,95,46,34,-45,50,-32
26,-127,-65,-2,8,-10,-47,-22
-60,44,-128,-14,-95,-122,-57,-80
124,127,122,111,127,126,98,55
-49,-115,-115,-113,-81,46,-32,34
105,31,-93,-101,5,-12,-5,31
-52,83,75,62,32,-30,22,-51
19,-52,-49,12,31,-21,-23,-9
-113,-44,-100,-87,-107,-94,11,-25
50,55,-31,-13,-15,-51,-93,-72
-86,-70,4,42,27,51,53,55
85,90,42,-16,22,5,2,-36
108,127,-21,-66,-24,8,32,-5
27,26,88,42,-50,52,-57,61
-52,-128,-128,21,-28,-87,-12,5
-12,79,33,-36,-24,12,47,-92
100,78,12,14,-31,-12,-41,-121
-12,19,30,-43,-42,-46,20,70
119,36,-56,-98,34,38,45,55
-74,-110,-40,57,3,-69,-57,-16
62,28,-7,8,-74,-107,-97,-119
-5,-42,-46,-69,30,98,58,2
122,69,63,57,64,8,-36,-36
11,-59,-128,-128,-73,-34,-44,23
26,81,-38,-37,-36,-80,-27,85
15,-38,96,69,84,-25,-7,-29
48,126,-33,-50,11,121,36,55
-43,25,71,22,36,47,73,-93
44,-95,-19,112,-13,31,-25,-51
-111,-21,0,-9,-25,-39,-56,12
26,-32,-116,-92,-69,27,32,-32
76,115,127,92,-18,29,48,127
-128,8,-1,-29,10,13,-49,-63
-24,-87,-110,-27,31,-21,12,-42
-14,17,64,43,47,42,-70,-121
43,-75,-11,-20,-12,35,-44,-26
-63,23,93,37,3,-21,42,-38
42,24,43,64,54,-34,20,19
24,-80,-71,-45,-72,41,44,-25
-77,-89,40,8,34,-38,-7,-4
46,-20,5,39,41,34,-94,81
-117,-59,-40,-9,-50,-61,1,-81
126,78,35,54,74,33,46,89
-126,-15,-104,-118,-17,-26,25,32
81,57,127,120,-5,-55,74,102
89,55,-68,-18,34,-27,-74,-5
-82,-110,-44,-100,-128,-54,-41,30
34,-38,-7,8,57,73,-7,-21
-11,13,-38,-77,-32,-17,-12,1
14,40,89,32,-25,32,-1,-44
36,-1,-100,-93,0,-68,-128,-128
-30,81,113,104,74,34,85,106
-5,-90,-74,-87,-8,80,127,-33
-84,-82,-73,-71,-6,17,-14,-42
-87,-76,46,97,33,-28,-99,-67
98,20,-116,-103,-103,-57,-63,59
88,48,-11,13,45,22,19,71
9,21,46,35,83,58,4,-9
-20,-24,30,20,-19,-29,-2,71
-93,-18,-26,-6,-16,48,45,-1
-111,-127,-3,52,34,14,-18,49
78,127,-11,-85,-52,24,37,23
16,11,-26,17,49,-71,-30,-13
121,-14,-93,-40,-71,63,-14,3
-74,-34,26,21,-18,-78,-128,-128
44,41,-6,13,20,60,127,88
-128,-1,-12,-51,-61,-15,29,-38
18,-68,-91,-83,-52,-5,-44,-59
-25,22,-128,-88,-8,-42,-43,-117
104,29,118,96,91,39,3,19
-86,-70,-48,-54,-69,-72,-29,-101
39,-72,-35,-41,-8,0,-112,-26
92,60,-5,-48,53,122,107,102
-113,-2,4,35,-40,-71,53,-3
127,88,36,17,16,-34,-3,64
-113,-25,8,28,-1,-26,-31,-12
-14,9,-69,-62,-11,18,-128,-63
-116,-15,105,107,30,3,70,-3
99,-38,2,-15,21,-21,-3,-45
-30,49,-9,-4,9,45,118,85
30,-29,29,17,-4,-1,-12,-19
14,20,-105,-82,-29,-11,-85,-56
-16,12,16,24,-4,16,6,15
17,44,55,31,8,-69,-18,-54
-18,-22,-14,10,-21,-21,8,12
45,-8,-64,-83,-36,24,-25,6
39,51,84,54,22,1,15,17
52,50,23,38,17,7,-1,-18
-37,-54,2,1,-1,-10,25,28
-7,-14,-21,-18,-26,-24,-40,-9
-25,-28,-16,-13,5,32,8,-14
-21,-17,8,5,19,-6,2,-13
-20,4,-4,-7,-16,-21,-3,-11
35,-22,11,10,-9,-8,-19,-11
-23,3,-19,-17,4,41,16,11
-37,-10,-3,11,4,-14,2,-7
21,25,19,8,-5,-9,-5,0
-16,5,-12,-9,0,16,-12,-1
15,-4,-3,16,8,13,21,29
80,27,11,-8,-2,9,3,-5
-65,-8,16,22,4,-2,-1,-10
-27,-10,3,-6,1,10,-7,-1
-2,4,1,-10,-24,5,2,-8
54,40,0,-3,9,-27,-9,-4
-22,-38,2,17,5,-1,2,-3
9,0,-22,-9,-7,8,-5,14
-6,-4,1,8,5,-7,-1,0
-33,33,9,-10,-6,-5,0,-3
24,-19,19,10,5,-8,0,2
-17,-27,-19,-11,0,-8,-10,-5
0,-8,2,15,5,2,-29,-11
-6,-4,5,-3,3,-1,19,-20
1,7,10,11,-2,-3,8,22
2,-10,-2,-7,-7,-2,-8,-8
-61,-14,-6,-5,2,8,8,-6
-30,-20,-14,-8,0,-9,-21,-13
17,21,10,0,-7,-14,-6,-5
-4,0,0,2,-1,5,4,3
-2,-9,-5,0,0,5,-4,6
-26,-10,-3,2,0,-8,0,-2
-15,-8,0,-1,0,-1,3,-3
36,14,3,-8,-3,4,0,1
-72,-16,-11,-1,0,0,-3,-16
41,6,10,9,-3,-6,3,-1
32,17,2,-1,0,1,5,4
-21,-12,0,-3,-1,-1,-8,-9
27,-10,-4,-2,-3,-1,6,0
-25,-13,-5,-6,-1,-7,-6,0
5,7,-2,0,-5,-2,-10,-3
8,5,-1,3,-4,-3,-1,0
18,21,10,3,3,5,6,6
-14,-10,-2,4,4,1,-2,5
26,16,5,-3,0,-3,3,1
-18,-12,6,-4,-2,1,0,-1
14,-6,-27,7,1,2,5,4
-14,-4,13,2,2,-3,-4,-6
-34,-32,4,-11,-5,-8,-7,-12
22,18,-8,-7,-8,-3,-4,2
25,35,18,2,5,-1,-3,10
-16,-30,-21,3,1,0,4,-5
3,6,0,-1,-1,1,1,4
-71,-45,-14,7,3,0,-6,-2
83,27,15,-5,-3,3,11,4
-65,-10,23,-2,-1,-5,-17,-7
-10,-19,-19,6,1,2,6,-1
8,-5,51,5,3,1,9,11
16,37,-14,-12,-6,-3,0,-6
18,7,-40,-6,1,-3,-5,4
14,1,26,1,-2,7,14,7
2,15,-22,-1,0,-4,-14,11
-18,-21,-17,-1,0,0,5,-25
13,6,30,5,0,0,5,1
-11,-3,-8,-6,-1,-5,-11,-9
16,0,-14,-14,-8,-9,-26,1
-12,-18,34,20,8,11,44,8
-5,-1,-29,-15,-7,-4,0,-2
2,16,17,11,5,0,-3,6
15,14,3,-3,-3,-1,-3,-6
-3,-12,-17,-13,-8,-4,-15,1
-42,-22,2,3,3,3,7,0
-8,7,-13,-10,-4,-6,-2,4
7,0,2,1,1,0,7,-6
-1,2,5,1,-1,-1,-7,2
22,-5,-24,-2,1,2,5,9
-3,-13,16,-2,-8,-3,-11,-6
11,1,-35,9,6,5,11,-1
-30,0,18,-1,-3,-4,-4,-1
28,4,8,-8,-5,-2,-6,4
-6,-9,-29,3,1,-1,-3,-3
41,17,20,9,1,-5,-14,-10
-14,0,-10,-7,-6,-19,-29,-2
9,-2,13,5,6,29,64,11
31,22,-10,-4,0,3,11,4
-1,-5,7,-5,-4,1,7,-1
-11,-27,-20,-4,-3,-10,-28,-5
-11,6,25,43,10,-10,-33,-9
-12,-13,3,-3,-1,-1,7,0
18,29,4,-9,-3,-1,1,5
-4,-13,7,-2,0,6,3,16
-3,-15,-18,-19,-6,-5,0,-9
18,11,-1,-1,0,0,1,4
-21,-4,-2,2,1,-3,0,1
-1,-8,-12,-6,-6,3,7,-1
4,5,5,0,2,-1,0,-1
53,3,-36,-27,-8,-7,-11,3
-66,16,64,52,13,5,5,-3
-43,-58,-14,-4,1,5,12,-1
-41,-17,-7,-5,-4,-6,-14,-13
49,41,23,-1,-3,-5,-6,2
-10,-40,-45,-12,-2,2,5,-6
22,42,11,-1,-1,1,7,7
-3,2,5,7,0,-3,-8,-1
5,-9,-8,-7,-4,-4,-4,1
-4,-10,-8,-1,-1,2,7,-2
-8,-10,14,13,5,3,0,-3
23,24,-27,-21,-9,-5,-6,7
-15,0,16,10,6,2,3,-3
8,4,2,-3,-2,-2,-1,0
17,0,-8,-1,1,0,-2,-3
8,6,7,-6,-3,-2,-3,1
-30,-9,3,6,1,2,-1,-3
15,1,-4,-5,-4,-1,-2,0
-3,-1,-6,-7,-3,-1,0,-1
10,11,6,0,-1,-2,0,3
-18,-11,1,9,1,-1,-4,-2
-8,-10,-8,-12,-3,-2,0,-4
-33,6,-2,4,2,1,2,-5
69,31,10,-9,-8,-6,-5,3
-9,-17,7,11,1,-2,-2,-4
3,10,-21,-5,-2,2,0,1
4,-13,-9,-2,-3,0,-1,-1
-20,1,9,3,0,-1,-1,-3
-15,9,4,-7,0,1,-1,-1
14,12,7,5,-1,0,-3,-3
-31,6,5,1,1,-1,-1,-2
-2,-8,-7,0,0,1,-2,-2
2,-12,-12,-9,-4,-1,1,-2
-13,-3,8,5,2,0,0,-2
27,11,11,6,2,2,0,4
-19,-9,-1,11,3,-1,-2,-4
-11,11,6,-11,-2,-3,-1,-4
5,-4,-5,-8,-3,-2,0,4
-19,-15,-6,-8,-3,-1,-1,-1
1,17,15,10,3,-1,0,-3
33,-23,-24,-4,-2,-1,1,3
-6,24,-2,-8,-4,-3,0,-2
-2,4,-2,-3,-3,-3,-3,-2
-12,-9,-12,-14,-4,-1,-1,0
-11,-4,-3,4,-2,0,1,-1
5,-16,8,7,1,0,2,0
-16,-13,-3,1,0,-2,0,-3
-16,9,-34,-51,-8,-1,-2,3
-4,8,35,42,14,5,0,-4
42,-16,-19,-8,-4,-3,1,7
2,19,25,4,-3,-1,-1,-1
-24,-28,-28,-15,-6,-5,-2,-5
-9,18,16,-4,3,2,0,0
-21,-1,7,0,2,2,-2,-3
4,-9,-15,-6,-4,-1,0,1
16,-6,-6,8,0,-1,-1,0
21,26,1,-14,-8,-1,-2,-1
-4,4,4,3,-2,-1,0,-1
14,7,7,1,1,0,0,0
-2,-7,6,7,1,1,-1,0
-19,-26,-15,-5,-4,-5,-3,-3
-19,-3,-3,-11,-2,0,-2,0
44,16,-3,9,2,0,-2,2
-13,-11,7,4,0,0,-3,-4
9,-4,4,18,3,0,0,3
-12,-3,-14,-14,-3,-2,0,1
4,-2,2,0,-3,-2,-2,-3
-8,7,10,13,2,1,0,-3
-10,-10,1,-18,-8,-2,-4,0
8,14,17,19,4,1,-2,0
9,-12,-16,-20,-3,0,-2,-4
43,4,7,14,4,0,0,7
-38,-17,-17,-13,-3,-3,-1,-8
-6,-3,-3,1,-2,-1,0,-4
-28,-12,1,1,0,1,-2,-2
105,29,8,0,-2,-1,-3,9
-13,-6,-7,2,2,1,2,3
-18,-6,-6,-8,-5,-3,-3,-5
1,-1,-10,5,5,2,2,2
-24,5,40,20,5,1,2,0
-3,5,2,3,-2,-5,-2,-3
18,-4,-10,-6,0,-1,0,0
13,5,-8,-8,-4,-4,-3,0
-43,-17,4,7,3,2,1,-3
10,3,-2,2,-1,0,-2,2
-3,-9,0,-5,-5,-4,-2,-4
4,6,2,3,-2,-1,1,1
-73,-14,-5,-3,-2,-1,-1,-7
-4,7,-5,-5,-3,0,-2,-4
-3,-3,-1,0,1,1,-2,-1
2,3,4,3,2,1,-1,0
-8,-4,-8,-4,-4,-1,1,-1
-12,-9,-1,-1,-2,0,0,0
45,18,-2,-9,-1,-2,-2,-3
-24,-6,1,6,2,-2,-2,-4
-7,-2,2,-5,-1,0,-1,-3
3,-6,-15,-2,-4,-1,-1,-2
-20,-6,6,1,-1,1,2,2
8,-2,10,5,-2,0,1,3
41,3,-21,-17,-3,-3,-3,3
-35,-1,18,34,7,0,0,-6
-8,-4,-5,0,-3,-2,-1,-2
-65,-9,2,-3,-3,-1,0,-3
43,7,-1,-1,-2,-2,0,2
6,-4,-5,-10,-2,-4,1,3
5,10,6,-1,1,-1,-2,0
-14,-1,7,10,1,0,1,-3
23,0,-13,-13,-6,-3,-4,-3
17,0,-13,-12,0,3,1,-1
4,1,-1,6,1,2,0,1
21,7,15,5,0,-1,-2,1
-15,-6,0,-2,-2,0,-1,-2
6,13,-3,-8,-5,-1,-1,0
-53,-13,0,5,0,0,1,-6
15,-5,-14,-15,-4,1,-1,-2
-8,5,5,5,-1,0,-3,-2
-12,-2,10,7,3,2,0,2
53,23,2,-5,-4,-1,-2,1
0,-5,-7,-6,0,0,0,1
-22,1,7,9,1,-1,2,-1
-16,-6,-15,-11,0,1,2,2
-1,-4,9,11,3,1,-1,3
31,-1,-16,-8,-1,-3,-2,1
-4,-1,-3,-3,-3,-2,-1,-2
20,4,5,1,-1,-1,-2,-2
-5,-3,-6,-5,-4,-3,0,-1
3,2,-2,-2,-5,-8,-2,-1
-10,1,9,-2,2,14,5,-1
-20,-13,-16,-3,4,0,-2,-3
-32,2,5,2,1,1,2,4
59,24,-16,-16,-4,-3,-3,-6
-23,-1,14,20,5,-3,-2,-1
2,-2,-1,-8,-5,-5,-1,1
-34,-19,-3,-7,0,3,2,2
-3,6,5,1,-2,-1,-2,-3
-38,-16,-7,-6,-3,-4,0,-7
-27,-4,5,0,0,0,-3,-7
-4,-14,0,-5,-3,-4,-1,0
23,15,13,7,-1,1,2,2
-19,-14,-19,-6,0,-2,-2,-4
-4,3,-1,-7,-5,-2,-1,1
11,2,14,11,0,-1,0,-2
-1,-4,-18,-5,-3,-3,-5,-12
19,4,9,3,1,-2,-1,3
13,2,1,6,0,0,-1,0
8,3,-8,-9,-4,-3,-1,0
-40,-12,-3,3,3,2,0,-2
-32,-8,-4,-6,-5,-3,0,0
31,5,-7,-14,-4,-3,-2,-3
23,10,8,4,-3,-1,-2,2
-35,-23,-16,1,6,6,2,2
26,1,-12,-5,0,-1,-2,1
-26,-8,-4,0,-3,-1,0,0
11,-14,-20,-14,-5,-1,-1,3
6,20,15,1,-3,-3,1,4
-27,2,-3,-4,-5,-4,-3,-7
33,15,11,-1,3,2,2,5
2,-3,-13,-8,0,0,-2,-5
19,15,8,1,1,1,1,8
-32,-36,-26,1,-5,-5,-3,-10
-13,-10,7,5,5,1,-3,-3
-14,-13,-22,-11,-7,-5,-7,-9
-11,3,-1,-4,2,1,1,0
22,15,13,1,0,1,0,4
18,8,2,0,-2,0,0,1
12,2,4,2,-2,-1,0,-1
1,-4,10,2,-1,-3,-3,-1
10,-9,-16,-8,-3,2,1,1
-12,-14,12,7,-2,-1,-1,-1
-5,12,-3,0,1,-1,-5,-7
-10,-15,-2,3,0,0,2,2
-9,7,-20,-19,0,1,0,-1
33,5,15,16,1,0,2,5
-21,-7,20,13,5,3,2,-4
-19,4,12,7,-2,-4,-3,-1
16,11,7,-7,-3,-3,-3,-2
-25,-8,-26,-5,-5,-3,-4,-9
3,-2,-3,-9,-2,-2,1,3
9,-8,3,2,0,-3,-3,-6
-44,-4,7,8,5,2,-1,-4
-10,-3,-1,3,1,-2,1,1
58,17,-9,-1,-2,-2,-1,3
5,-5,-19,-15,-4,-1,-1,2
29,13,15,7,0,-2,0,5
-17,4,4,-5,-2,-2,-2,-2
-16,-7,-5,2,1,0,0,0
2,0,7,1,-2,1,-1,-1
14,1,2,4,1,-2,-1,1
9,1,-11,-5,-3,-2,-1,1
-7,-3,1,-1,-1,1,1,-1
4,-1,4,4,-1,-1,-2,-3
5,-1,2,0,0,-1,0,0
6,14,-6,-9,-2,-1,-2,0
-8,-12,5,5,-1,2,-1,-2
-3,-5,-5,-3,0,0,-2,-2
12,-3,-5,-1,0,1,1,4
13,5,2,2,-2,-1,-2,-3
-8,10,-1,-4,-2,-4,-2,-1
5,-9,3,3,-1,0,1,-1
2,-1,-10,-2,-2,-2,-1,2
-9,-8,-5,-5,-4,-2,-1,1
-8,1,8,6,1,2,2,1
17,3,-24,-17,-9,-7,-5,-1
-12,-2,7,6,0,0,-1,-3
-2,-3,2,-3,-1,-2,-2,-2
0,-3,-7,1,2,-1,0,2
-9,-5,6,0,-1,0,0,0
4,-2,1,1,-2,-1,0,-2
13,0,-1,3,3,1,-5,-5
-5,-3,2,1,-1,1,2,5
-7,15,1,0,-1,0,1,0
6,-21,3,1,-1,-1,-4,18
0,3,2,-1,-1,-3,-15,-33
-1,10,3,-1,1,2,16,9
-6,-8,-2,2,0,0,-7,-24
-3,-28,-19,-7,0,1,2,-1
-14,29,26,8,6,4,3,16
13,2,-5,-6,-5,-7,-12,-6
-5,-35,-12,-4,-3,-2,1,-2
10,17,14,3,2,-1,-7,1
1,-11,-11,-4,1,0,20,15
-3,15,-1,-1,1,-1,-2,-12
-8,22,9,4,2,3,2,16
15,-1,5,1,-1,-2,-10,-13
32,11,-8,-5,-3,-1,7,7
-18,-24,2,1,0,1,3,5
17,9,-6,-1,-3,-2,1,-8
-29,20,-2,1,-1,-2,-4,-2
-18,-8,5,-1,0,-2,-3,-6
-7,-3,4,1,-2,-3,-5,-2
-33,-24,-19,-12,-6,-6,-10,-12
31,48,-8,-2,-3,-1,0,23
-15,-81,-4,-5,-3,-2,4,4
-2,60,10,2,2,-1,-5,-6
16,-32,8,5,2,3,5,10
-14,72,10,0,-1,-1,2,-8
23,-48,12,11,5,4,-12,-6
-34,37,-17,-4,-2,4,24,30
-25,-58,22,5,0,-5,-16,-26
-5,5,-12,-9,-6,-4,7,-7
6,53,17,4,5,4,-5,-2
-47,-96,-15,1,0,1,-8,-7
56,43,0,-5,-12,-3,-5,32
-62,-77,-1,1,-1,-20,29,-48
-28,44,-7,-11,-6,31,-78,-25
-11,3,9,2,2,-40,95,10
-13,10,-1,18,42,57,13,22
1,-81,-8,0,-3,0,-1,8
26,108,32,-2,-14,-5,-14,0
12,-48,-10,-19,-36,-42,-55,-23
-27,-107,-45,-13,-1,-6,7,-16
7,41,18,6,10,5,-13,-5
-21,-11,-9,8,2,-6,27,4
-18,10,-15,-21,-14,5,-32,-3
-37,48,11,3,-9,-17,9,-5
-19,3,1,-3,-6,6,-29,22
2,-30,-21,-4,5,9,27,-26
25,-7,14,13,23,4,5,2
-13,-22,2,7,6,2,-6,4
30,57,13,3,-2,1,0,7
8,30,-12,-13,-20,-11,-10,9
-2,-61,-16,-13,-51,-29,-42,-6
18,48,10,14,61,0,52,40
-12,-25,0,3,16,28,9,-35
49,73,22,-1,3,-14,16,14
49,72,0,-2,-3,43,-10,-13
11,10,-7,-14,-34,-26,-28,1
-8,-30,-6,-20,-69,-24,-17,1
-7,-44,-6,15,54,38,26,12
12,-8,4,6,5,-5,-6,-3
-11,42,12,3,2,12,-2,-9
-2,-6,3,-11,-37,-42,-17,-4
-28,12,-18,-14,-30,-35,-13,7
1,0,5,9,19,14,6,-28
-5,-8,2,11,41,5,19,16
17,-1,0,3,12,5,4,-35
-17,-33,-13,-10,-25,-22,-3,19
5,-10,4,1,6,1,1,8
4,18,-11,-22,-43,9,-28,-23
-1,-13,0,17,56,22,17,22
4,-40,-8,3,6,-8,7,1
4,12,-9,-11,-7,12,-1,0
7,-11,13,27,10,19,-3,-11
3,-1,-13,-25,-1,0,3,17
-4,-12,23,37,6,4,0,-8
-5,-7,7,-2,4,-11,-1,-1
2,10,-2,-2,-14,-15,-4,2
15,-9,-38,-18,-6,-1,-2,6
-7,-13,-6,-22,-4,-4,1,-8
-3,-6,7,2,0,0,-1,1
6,-4,-5,-2,-9,-10,-4,-4
7,20,2,17,11,0,4,2
-2,-20,3,-28,-13,4,-2,-1
0,9,8,23,23,14,4,9
-5,-22,-13,-27,-17,-10,-3,-7
21,3,0,6,4,11,-1,1
-8,-26,-25,-9,-3,-7,-1,0
6,20,9,5,6,6,2,3
5,-2,2,-9,-16,-22,-5,-6
-15,-29,-2,10,-6,-8,0,2
19,45,9,15,13,1,4,0
-11,2,-8,-6,-4,-7,3,-1
-26,-18,-12,-7,-11,-28,-5,-6
-12,-1,3,-6,-4,-6,1,4
10,-21,-9,-8,-23,14,-7,-2
6,16,8,12,21,5,4,7
11,16,7,-2,-2,4,1,2
-6,-5,3,5,5,2,2,3
-22,-18,3,10,4,6,1,-1
18,7,-2,-4,-5,5,-4,-2
-1,-21,-5,-4,-10,0,1,3
19,20,6,0,10,4,-2,0
-17,-3,-8,1,2,-2,0,-3
-12,20,7,0,-2,4,-2,-1
14,-6,3,3,2,-6,0,-3
3,-2,-6,-6,-10,2,-5,-2
-2,9,-1,-1,5,-7,3,-1
2,-19,-12,-8,-3,-5,-1,-2
-7,16,6,4,2,18,-1,-3
-5,5,6,2,1,4,0,1
1,-10,-5,-2,-4,-5,-1,-1
-2,-9,-4,-1,1,-3,-2,0
3,6,-1,-1,-3,2,-2,0
5,5,7,-1,2,-1,-1,1
-6,-8,-2,0,1,-3,-2,-1
3,-9,-5,-3,-11,-3,-2,-1
0,-3,1,-2,3,3,-1,-2
-6,-16,-8,2,-1,-2,1,0
7,34,11,4,6,5,-1,-2
-7,-40,-13,-6,-3,-2,-3,-2
4,18,5,1,-1,0,-3,-1
-6,-13,0,-4,-1,-4,0,-2
0,-15,-6,-4,-2,-1,0,-1
2,11,6,2,4,5,1,2
8,-22,-10,-2,-3,-3,-1,-2
-1,7,3,0,0,2,0,1
-2,-9,-4,-3,1,0,-1,0
-3,-4,-4,-4,1,1,1,0
-3,9,1,6,2,3,1,-1
-1,4,3,-2,-4,-4,-1,-3
1,0,-2,-1,0,-3,-1,0
0,3,2,-3,0,0,-1,-2
-1,11,-1,-1,-1,-1,-2,-1
4,-13,-5,-1,1,0,-1,0
-7,-7,-4,-1,2,0,1,-1
-3,3,2,1,1,3,-1,-1
-8,-27,-2,-4,0,-2,1,-1
10,28,1,-1,1,-2,-4,-1
-8,-27,-4,2,-1,-2,-1,-1
7,5,-1,0,-1,2,0,1
-6,-1,-3,-3,-2,-3,-1,0
-6,-3,0,-1,0,0,1,0
3,-8,-4,-4,0,-2,-1,-1
-6,12,4,6,0,-1,-1,-2
-6,0,0,-1,1,0,-1,0
1,-3,-2,1,0,1,1,0
2,4,3,0,0,0,0,-1
-13,-8,-6,-5,-3,0,-2,-3
3,15,1,-1,-2,1,0,1
-1,3,3,3,0,-3,-1,0
4,8,3,4,2,0,0,1
-6,-22,-6,-8,-4,-3,-2,-3
-3,-1,-1,2,1,1,0,-4
2,1,-1,0,-1,-2,1,0
-17,17,8,-2,-3,-1,-2,-3
13,-9,-3,0,-1,1,-3,-2
3,3,-1,-3,-2,-3,-1,-1
6,-1,-2,-2,0,1,0,0
3,5,-8,-3,-3,-1,-2,-1
0,6,-2,0,-2,0,0,1
-1,-7,-1,-1,-2,-1,-1,-2
-4,-1,1,0,0,1,-1,1
4,-7,2,0,-1,-1,2,0
-1,-8,-4,-7,-5,-4,-3,-3
1,-3,-2,6,2,-1,-1,-3
-4,0,2,0,0,0,1,0
5,-6,-6,-3,-2,-2,0,0
2,5,2,2,1,1,1,2
-1,6,2,-2,-2,-2,-2,0
-5,-8,-3,-2,-2,-1,0,-2
-2,-13,-7,-3,0,1,-1,-1
-4,17,10,1,0,2,2,2
17,4,0,0,-3,-1,-2,-1
-5,1,-1,-1,0,-1,-1,-3
-1,-7,-4,-1,-1,-2,-1,-1
-8,-10,-4,-3,2,-1,-1,0
-5,0,-1,-1,1,-1,-1,1
-1,1,2,0,-1,0,0,-2
-2,-7,1,-1,-1,-2,-1,-1
7,1,-3,-1,-1,-1,0,0
-6,16,1,-4,-2,0,-1,-2
-1,-23,-5,0,-1,0,1,0
6,7,3,6,0,1,-1,1
-1,-12,-1,5,2,-1,-2,-4
-1,13,-4,-11,-7,-4,-3,-1
-24,-13,-8,-6,-1,-3,-4,-6
0,-6,-4,-3,-1,0,-1,0
-3,-4,-1,0,1,0,1,0
6,-13,0,4,0,-1,0,1
-4,4,-2,-3,-5,-1,-2,-1
6,0,1,-1,0,0,1,0
11,24,2,-2,-1,0,1,2
-15,-6,-3,-2,0,-1,-1,-5
0,-1,0,0,0,0,0,1
-4,-3,1,0,1,-2,-2,-4
-5,-4,0,1,0,0,-1,-2
4,-8,-3,-1,-1,0,-1,2
7,10,2,-2,-1,-1,-1,0
-7,-12,0,-3,-1,-2,1,0
15,8,-1,-4,-4,-1,-3,-2
-8,-5,-3,-1,-1,1,0,-1
9,2,1,1,1,-1,0,2
1,15,-5,-3,-4,-2,-1,0
-3,-16,-6,-3,-1,-1,1,1
-39,-29,7,7,3,2,2,-3
30,45,4,-3,-2,-4,-4,-1
27,-5,-10,-9,-8,-5,-3,-5
14,7,-3,-2,-1,-2,-2,3
-18,-5,-1,-1,-1,0,2,1
-10,-7,4,5,2,3,2,-1
-12,2,4,4,1,1,-2,-2
-3,-1,0,0,0,-2,0,-3
13,-4,-3,-4,-2,-1,-2,-1
-4,8,3,0,1,-1,0,0
-1,-5,0,-1,0,0,0,-1
-11,-10,-2,-2,-5,-2,1,-3
4,12,3,5,2,-1,-3,-1
-5,-5,-3,1,-2,-1,-2,-1
-6,-5,-4,1,-1,-1,1,-1
-8,-11,3,1,0,-3,1,-1
2,-1,-2,-4,-2,-2,-1,-2
6,-10,-4,-1,-2,-2,1,-1
-5,21,2,-2,-1,0,0,-1
-2,-13,-8,-5,-5,-1,-3,0
-2,-3,-2,-1,-1,0,0,1
-6,-15,2,3,1,0,-2,1
-13,8,-2,1,0,1,1,2
-1,13,9,2,0,0,-2,-4
7,13,-3,-5,-4,-3,-1,-6
-7,-9,-3,-6,-3,-3,0,3
-12,8,2,-1,-2,-1,-1,1
14,0,-2,2,0,-1,-1,2
-14,-12,-2,1,0,0,-1,-2
31,28,-1,-2,-1,-1,-1,0
-7,-36,-1,0,0,0,-1,-3
-14,2,0,-1,-1,-1,-1,-3
26,5,0,-2,-3,0,0,3
-31,-8,-1,-1,-2,-2,-2,-4
14,-4,-3,-2,-2,-1,-2,-3
0,-2,-5,1,0,1,1,1
10,8,4,0,-2,-2,-3,-1
-31,-13,-2,-5,-3,-1,-1,-7
16,6,-4,-2,-4,-4,-3,-1
-26,-21,-4,0,-1,0,-1,-4
19,20,-2,-2,-1,-1,-1,1
-26,-37,-6,-2,-1,1,2,1
6,11,0,-1,-2,0,2,3
-12,13,6,-2,-3,-3,-5,-8
-3,7,1,1,2,1,0,3
4,5,2,-1,-1,-1,-1,0
4,-10,1,4,-1,-1,-1,-1
10,-4,-4,-2,-1,0,1,2
-14,-5,-1,-2,-1,0,1,0
22,27,2,-1,0,1,-1,1
7,-23,-3,-1,2,-1,-1,2
-9,11,3,0,1,2,-2,-1
2,-15,-6,0,0,0,0,0
14,19,11,1,-2,-1,-1,1
-11,-5,-7,-7,-3,-3,-2,-3
-9,-8,-8,-3,0,-1,0,1
14,-11,3,2,2,0,2,2
-10,-19,6,4,1,1,-3,-5
-25,-25,-8,-4,-2,0,1,0
-17,-4,-1,-3,-1,-2,1,-1
11,-1,1,-1,-3,-4,-1,0
-1,2,-2,2,-1,-3,-2,-2
-7,17,6,2,1,2,-2,-5
16,-31,-6,-1,-1,0,-1,2
-8,9,0,-2,-3,-2,-2,1
-1,2,-2,-1,-3,-1,1,0
-7,-5,-2,0,0,-3,0,-3
9,20,0,-2,-3,-1,-3,1
-6,-4,-2,-1,2,0,-3,-4
3,-7,-7,1,1,-1,-2,0
13,10,-6,-4,-3,-2,-1,2
1,7,18,12,3,2,0,1
-13,4,2,-4,-3,-2,-1,-4
14,5,-11,-3,0,2,2,2
-11,-8,-10,-6,-7,-4,-1,-3
0,-3,-34,-37,-13,-6,-4,-2
0,16,60,75,23,9,5,4
-1,0,16,13,6,4,2,0
5,19,10,-6,-2,0,-2,-2
-1,-21,-16,-7,-7,-5,-4,-4
1,-5,-24,-25,-11,-5,-4,-3
-3,-5,-9,-7,-2,-3,-1,-1
2,-1,5,-4,-2,0,-2,1
7,5,13,24,8,3,3,3
-3,1,-10,-17,-5,-2,-2,-1
3,-4,4,10,2,0,-1,0
-10,-6,-16,-19,-6,-2,-3,-4
9,13,13,7,2,0,-2,-1
10,-28,-17,-23,-6,-1,-1,-2
19,48,28,25,5,1,-1,-1
0,9,0,3,-1,-2,-1,5
-7,-12,1,-3,2,1,-2,-5
-1,0,-7,0,0,0,2,0
-6,-25,-14,-14,-2,-3,-3,-4
14,-2,6,5,2,0,2,1
-3,19,1,3,-1,0,-1,0
-3,-1,-13,-15,-7,-3,-4,-1
-16,-20,-11,-11,-6,-3,-3,-2
-1,29,14,13,6,2,0,-2
20,46,4,-10,-4,-4,-2,0
-15,-40,-10,-3,-3,-3,-1,-3
-1,-9,0,-5,-2,-2,1,2
-6,-6,-5,-1,-1,0,0,2
14,4,1,0,-1,0,-1,0
9,28,0,-1,-1,0,-3,-1
22,9,7,-3,-3,0,-1,2
-1,-41,-7,-1,0,-1,-2,-6
4,-5,-5,-1,-1,-1,2,2
-17,8,3,3,1,-1,-1,1
-6,-25,-14,-12,-3,-2,-2,-3
1,24,7,7,2,0,1,2
-14,-18,0,0,-1,0,-1,-3
5,-11,-8,-3,-1,-2,-1,-3
-7,18,-2,-2,-2,-1,1,2
-20,-7,4,1,1,0,-1,-3
20,10,-2,-1,1,-1,-1,-2
-27,-7,1,-1,0,0,0,-3
26,33,0,-5,-4,-2,0,4
-1,-20,1,4,1,0,-1,0
1,1,-2,-3,-2,-2,0,1
-5,1,-2,-1,-1,-2,-3,-1
-2,-10,-4,-2,-2,0,-1,-4
1,-3,-6,-1,0,0,-4,-4
-24,-15,-3,1,1,1,0,-1
32,14,2,-5,-6,-5,-3,0
-13,-10,-8,-4,-2,-3,-2,-3
-14,0,0,-1,-2,0,-3,-4
-5,-11,-3,0,1,-1,-1,-1
-2,1,3,4,0,0,1,-1
4,-18,-4,-2,0,0,-1,1
-7,-4,-4,-2,-2,-2,-1,-2
13,6,4,1,-2,0,0,1
-10,14,-8,-4,-2,-3,0,0
2,-7,11,3,3,-2,-3,-5
-1,-1,-3,-1,-1,-2,-1,-3
-58,-23,-4,-2,-2,-1,1,-2
63,11,2,2,1,1,-2,4
3,0,-6,-3,-2,0,-1,-1
0,1,-2,-1,0,-1,-1,-3
-26,1,0,-4,-3,-3,-1,-2
-10,-14,3,0,1,0,1,-1
-10,-2,-1,-3,-2,-1,-2,-2
15,9,1,1,-1,-1,-2,3
20,3,-2,0,1,-1,-1,-1
-17,-2,-1,0,-1,0,0,-3
-8,1,-1,0,-1,0,1,0
-3,-12,-3,-1,-2,-2,2,4
32,11,-1,0,0,-1,-2,1
-12,-24,0,-2,-2,0,1,-1
-14,2,1,-8,-5,-4,-3,-5
10,12,4,18,5,0,1,2
4,-12,-11,-8,-5,-2,-2,-2
-10,2,-2,-5,-2,-3,-3,-2
2,3,-1,-3,-1,0,0,0
3,0,-1,-11,-3,-1,-1,-1
-1,-7,-10,-12,-3,-1,-1,-2
-2,-2,-2,12,3,0,-1,0
-2,8,0,1,-2,-1,1,2
4,-10,22,23,10,3,0,1
-5,-25,13,9,2,2,0,3
5,35,-5,-19,-8,-4,-3,-1
-3,-23,-15,-8,-4,-3,-1,-1
-2,2,-8,-10,-7,-2,-2,-3
3,-1,-3,-3,-1,-1,-3,-5
-24,-14,-17,-4,0,4,4,-2
17,9,-3,-31,-9,-2,-1,-1
13,9,-11,7,3,2,1,6
-7,29,66,50,23,10,2,-4
-43,5,19,3,2,-1,-3,-1
7,-12,-27,-19,-5,-4,0,-1
-1,-17,-23,-23,-6,-3,-2,-1
18,14,-23,-11,-6,-6,-3,5
-54,-16,1,3,-1,-2,-4,-9
8,12,10,17,4,2,0,4
-23,-20,-6,-13,-6,-3,-3,-4
43,11,-13,-5,-3,-2,2,5
2,10,11,4,1,0,-1,1
7,-3,1,7,5,1,1,3
-7,2,0,1,-2,-3,-2,-1
-14,15,4,-7,-2,1,-1,-1
18,-33,-13,-5,-5,-4,-1,2
-20,-9,8,15,6,2,1,-3
28,24,3,-1,0,-1,1,1
-21,4,-2,-1,-3,-3,-2,-4
31,5,-1,-4,-2,-1,-1,2
-30,-24,-5,7,0,-2,-1,-5
-7,6,13,1,-2,-2,-2,-3
1,-8,-14,-12,-5,-3,-2,-3
21,3,0,3,3,2,-2,-2
12,38,2,-2,-4,-4,-3,-4
5,-1,-1,-2,-1,2,2,3
-14,-12,-5,-1,-2,-1,1,-2
-51,-18,-1,-1,-1,0,0,-6
18,7,5,2,-1,-1,-4,-6
-9,2,-2,-4,-2,-2,-1,0
1,-7,1,10,3,-1,-4,-3
26,2,1,0,3,3,1,4
-16,-10,-2,4,1,2,-1,1
9,-5,-3,-3,-9,-7,-1,-2
13,6,-1,-5,1,0,2,8
-12,-1,1,2,1,0,-3,-4
75,25,4,5,0,2,2,10
-85,-39,-2,-1,-6,-10,-4,-14
24,-12,-8,-4,-3,-1,2,5
27,12,0,-1,-1,1,1,2
-15,-2,-1,0,1,-1,1,1
-3,3,0,-1,2,1,-1,-1
-17,-18,-5,-7,-5,-4,-1,-3
15,7,-4,-2,-3,-2,-2,-3
-27,1,4,5,2,2,-2,-2
36,-13,-4,-7,-2,-2,-3,1
-26,-6,4,7,1,-2,-2,-6
27,7,-2,-3,-2,-1,2,5
-37,-19,-8,-7,-2,-3,0,-4
16,18,-1,2,2,3,1,2
5,7,1,1,2,1,0,1
48,12,-1,-11,-7,-7,-3,0
6,-22,-4,-2,-4,-2,-2,-3
3,25,2,0,-1,2,-2,0
8,-28,-4,-15,-4,-2,0,-3
-3,12,11,19,4,2,2,1
-18,-6,-7,-13,-3,-1,-2,-2
9,2,0,1,1,1,-1,2
17,1,-16,-15,-8,-5,-4,-5
-10,6,1,-4,-3,-1,-3,-1
-21,-9,6,11,1,1,0,1
-42,-28,-12,-4,-3,0,0,-1
-28,-11,8,2,0,0,-3,-6
45,-22,-10,2,0,-2,1,5
-31,-6,-1,6,3,-1,-2,-6
7,21,11,7,2,2,1,1
-4,3,-1,4,1,1,1,3
-2,-13,-1,-2,-1,0,-1,-1
-9,-4,-4,-6,-4,-1,-2,-4
9,-1,0,-1,1,0,-1,0
-11,5,-1,0,0,-2,0,-2
-9,2,1,-3,-2,-2,-3,-4
20,13,4,-1,-1,-2,0,3
-19,6,3,0,0,0,-2,-8
13,24,-3,-3,-2,-2,-3,2
-19,-19,-8,-3,0,0,0,-1
-8,16,1,-2,-2,-1,-1,-5
11,-28,-1,-1,0,-1,-2,-1
-11,-10,-3,0,-2,0,2,1
-6,8,1,-4,-2,-2,-3,-3
-7,14,3,1,0,1,0,-4
12,9,1,3,1,1,0,2
-2,-24,-10,-4,-5,-2,-2,-4
-13,-9,-4,-5,-3,-2,0,1
1,-12,-1,-2,-3,-1,0,5
15,19,0,-3,-2,0,0,-1
-15,-12,-2,3,2,1,1,0
-2,6,2,-2,0,0,-1,1
-10,2,-3,-1,-1,-1,0,2
9,-23,-4,-4,-1,-1,0,0
9,28,11,4,1,0,0,1
-25,-46,-8,0,0,-1,0,-3
16,26,0,-2,1,0,0,0
-2,-2,-5,-3,0,-1,0,0
-2,-4,-3,-2,1,0,-1,0
-6,11,0,1,0,1,2,0
17,0,0,0,-3,-1,-3,-1
-6,-18,-5,-1,-1,-2,1,3
-21,7,4,1,-1,-1,-3,-4
-2,2,-4,-6,-3,-1,-3,-1
11,0,-2,-1,-2,-2,0,-2
-1,12,1,-1,0,-1,-2,-1
-5,-9,-1,1,0,-1,-1,0
-4,11,2,2,-1,0,-1,-1
-4,-18,-3,2,1,-1,-2,-3
-3,5,-3,-5,-3,0,-2,-1
14,7,5,7,0,2,-1,-1
2,21,2,0,0,-2,-3,0
-9,-28,-2,1,1,-1,0,-2
12,6,-1,-5,-2,-2,-1,-1
-2,-4,-5,-2,0,-1,-1,-1
-3,18,3,-2,-1,1,0,2
0,-8,-7,-6,-4,-3,-2,0
-10,-10,0,2,2,0,-1,-3
3,-1,-5,-7,-7,-2,-1,-2
9,3,0,-1,1,-2,0,1
-5,-7,8,3,2,0,1,0
6,19,-1,1,-2,-2,0,0
11,22,4,4,0,-1,-3,-2
-10,-30,-5,-3,-1,-1,-2,-3
1,2,-3,-3,1,1,0,1
-3,5,2,-1,-1,-2,0,-1
6,-2,-1,-1,0,0,0,2
0,3,-3,-2,0,-2,0,-1
19,10,5,2,1,-1,1,3
-17,-12,-1,2,-1,-2,-1,-3
5,-1,-8,-4,0,1,-1,0
-5,7,3,-2,-5,-3,-2,-6
18,-7,-3,-3,-1,-1,1,1
-19,-5,0,4,0,0,-3,-3
-14,5,2,2,1,-1,-1,-3
5,0,-4,-2,-3,-1,0,0
5,1,-3,-3,-5,-2,-1,0
-2,-9,0,-1,-1,1,1,-1
-10,29,3,-4,-4,-3,-4,-4
-2,-15,-3,1,1,0,-1,-1
-1,-3,2,-1,-2,-1,-1,-2
-2,-12,-2,-3,-1,-3,-1,-2
6,2,0,2,0,2,1,3
0,7,0,-4,-4,-3,-1,0
-11,-6,-4,0,0,0,0,0
-17,-1,3,0,-1,0,0,-1
17,-4,-4,-4,2,0,0,2
-6,0,1,3,2,0,1,-2
5,-9,-4,-1,-1,-1,-1,-3
-9,-7,1,2,1,0,-1,1
8,-4,-5,-2,-2,-3,-2,-4
-15,-21,-6,-2,-2,0,1,2
-11,0,2,-5,-3,-3,-4,-2
6,34,1,5,-1,-2,-1,-2
-1,-10,-2,1,0,0,1,0
17,19,11,1,3,0,0,3
-4,-27,-6,3,1,-1,-1,-2
37,-2,-1,-4,-2,0,0,1
-16,-10,-3,-4,-2,-1,-2,-2
3,6,0,1,0,-1,-1,-2
-4,14,0,-2,-1,-1,0,0
16,3,-1,-3,-2,-1,0,1
-11,-8,2,4,1,0,2,1
8,-3,-4,-3,-3,0,-2,-4
5,10,4,2,0,0,-2,-3
-2,-4,-4,-4,-1,-1,1,0
-1,-14,0,1,-2,-1,0,0
-11,7,-2,0,0,-2,1,-3
0,13,-3,-1,-1,0,-3,-1
8,-2,-5,-3,-3,-2,-1,3
-4,-33,-2,3,1,0,-2,-3
-2,-29,-2,-3,0,1,0,-2
13,32,1,-2,-3,-1,0,0
2,6,-3,-9,-5,-3,-3,-1
3,5,1,1,-2,-2,-1,0
-3,-2,0,5,1,1,-1,-1
-13,-18,-1,-1,0,0,-1,-1
-1,1,-12,-20,-7,-3,-3,-2
-9,17,24,46,15,6,1,1
3,-9,-2,-4,-4,-3,-2,-2
-11,1,-1,2,1,1,-1,-2
-4,-8,-4,-7,-4,-2,-2,-4
-8,-7,-10,-16,-5,-2,-2,-3
-19,0,-2,-1,0,-2,0,1
22,13,-6,0,1,0,-1,3
-12,-11,22,20,5,3,-1,-2
8,6,-8,-9,-3,0,-2,2
-4,10,11,3,0,0,-2,-3
-10,-17,-8,-13,-5,-3,0,-3
-1,-5,-3,4,2,-1,-1,-1
2,1,-7,-12,-5,-3,0,-2
-28,-19,-27,-27,-9,-6,-1,-1
7,14,57,52,20,9,4,5
25,36,4,-2,-2,-3,-1,0
-11,-9,-2,-11,-4,-1,-3,-1
4,2,-14,-13,-8,-3,-2,-1
-7,-16,-19,-15,-7,-6,-3,-4
-31,-15,2,11,5,2,-1,-1
32,13,-1,-9,-4,-4,1,2
13,7,0,4,0,0,-1,0
-2,-2,-4,-5,-2,-2,-2,-2
16,12,5,4,-1,-1,-2,-3
-10,-13,-5,-9,-2,-3,0,0
-5,-2,16,17,4,4,0,1
-5,0,-3,-4,-1,-1,-2,-2
-8,-6,-9,-7,-3,-1,-2,-2
-47,-13,-14,-6,-5,-1,-1,-3
34,18,2,1,1,0,-3,-6
1,5,13,2,1,1,2,1
2,-9,-10,-9,-1,-1,0,-2
-29,-1,12,5,0,-1,-1,-1
10,5,-3,7,4,3,1,0
0,-11,-13,-15,-7,-4,-2,-2
0,-5,-14,-1,-2,-3,-4,-5
21,2,11,-3,-4,-2,-3,0
-34,3,-19,-13,-6,-4,-1,-2
29,-3,-7,3,-4,-4,-4,-4
34,7,14,18,6,2,2,8
-33,-23,-26,-17,-5,-3,-4,-5
1,9,0,4,-5,-4,-1,-11
-45,-24,-2,-40,-5,1,1,7
13,27,54,73,29,13,8,5
-21,-43,-31,-35,-14,-13,-15,-27
70,31,-3,7,4,3,11,24
-78,-66,-63,-23,-9,-3,2,-9
32,0,8,-24,-15,-7,-3,5
44,42,9,11,9,7,4,5
-53,-40,-19,-14,-8,-7,-9,-12
8,10,4,12,3,0,-1,1
-30,-13,-2,-8,-2,0,-2,-4
18,7,6,19,3,0,1,0
10,0,8,-2,1,-1,0,1
34,20,18,10,1,0,0,2
-32,10,-11,-12,-2,-3,-1,-6
29,12,4,-4,-4,-4,3,8
0,-4,4,10,7,2,-1,1
8,-1,17,10,0,-3,-3,-4
-15,-6,-22,-17,-6,-1,1,3
4,16,-2,7,3,0,0,0
-8,-6,23,6,1,1,-1,-2
17,24,-5,4,-1,-2,-4,-11
-27,-8,-21,-12,-4,-2,-1,-2
-5,-12,5,8,4,3,5,9
-16,-2,8,1,0,0,-5,-17
16,3,0,-4,-1,-1,4,6
5,-10,-1,-5,-2,-1,2,6
-6,0,1,5,2,1,-2,-12
-13,-6,-4,-5,-2,-2,0,10
6,7,4,3,2,1,1,6
4,0,-6,0,1,0,-4,-6
2,-3,7,2,0,-2,0,4
17,13,-3,-3,-3,-2,-3,-2
-9,-6,-1,2,3,1,-2,-5
26,7,3,-1,-1,1,-1,3
-9,-3,-1,-4,-2,1,-1,-2
36,9,0,2,-1,0,-1,1
-15,-8,-11,-2,-1,0,0,2
5,-12,0,-3,-5,-6,-5,-8
18,4,-20,-28,-10,-3,1,4
15,4,49,73,25,10,6,8
-50,3,3,-2,-2,-1,0,-3
-20,-9,-23,-22,-8,-5,-2,-6
-1,9,13,4,-1,-1,-4,-1
-36,-25,-16,-19,-10,-4,-1,-1
-2,-10,-61,-47,-17,-7,-7,-6
-9,25,69,71,22,9,6,8
-59,-31,42,52,17,7,1,-3
-15,2,8,-4,1,2,1,-1
19,9,-15,10,5,3,4,6
13,5,-34,-53,-20,-10,-6,-8
21,-12,-43,3,0,-1,1,2
23,9,-1,-12,-11,-6,-3,-4
-4,2,0,-16,-8,-8,-7,-6
7,23,16,36,16,7,3,5
6,-14,14,3,-1,-2,-2,-2
-2,35,-26,-27,-7,-4,-2,-1
-10,-46,-40,-38,-14,-6,-3,0
-4,38,34,39,6,-1,-2,-6
3,-2,39,21,10,4,3,2
4,-49,-6,-20,-9,-6,-3,0
9,49,1,17,4,4,0,3
-2,-27,-12,-14,-9,-2,0,-1
5,32,-11,-15,1,-1,0,2
10,-20,-23,-17,-5,-1,-1,-1
41,21,49,39,11,4,1,-1
2,-27,53,-3,-3,0,0,4
8,13,-66,-25,-12,-4,-3,2
-9,-12,13,1,1,-1,-1,-3
15,8,18,21,6,1,0,2
5,-11,-44,-24,-6,-3,-2,-3
4,-27,19,3,-3,-1,0,-3
-13,20,-2,5,4,1,0,-1
-14,-13,-42,-17,-7,-2,-2,-4
-9,-46,18,7,-3,-1,-2,-4
11,69,-45,3,11,5,5,10
-16,8,32,0,6,4,3,0
21,46,8,12,4,-3,-3,-1
-6,-8,-55,-19,0,3,1,3
-20,-38,12,-14,-13,-8,-8,-10
-13,-14,9,-5,-7,-4,-3,-4
-5,-15,9,3,1,2,3,0
-3,33,-65,-32,-5,-2,-2,-2
-13,-28,29,16,6,9,6,2
24,102,16,0,-8,-12,-10,-4
3,8,13,2,-1,-3,-3,0
-10,-45,-18,-1,-4,-1,-2,-3
-4,-20,-5,-13,-7,-4,-4,-4
-8,-17,-26,8,7,7,2,0
8,-8,15,-2,2,2,6,8
7,41,30,-4,-2,-4,-4,-2
12,-4,-6,-21,-8,-8,-6,0
-9,-37,9,14,5,2,2,2
-6,31,20,-7,-3,-1,-2,-4
5,26,14,2,3,-1,-2,0
8,63,17,6,5,3,5,6
5,-43,-30,-12,-2,-2,-1,-4
-11,-22,-30,-8,-7,-5,-7,-8
13,31,31,15,9,6,8,6
-3,23,-12,-9,-9,-10,-14,-4
1,-11,-6,5,0,0,11,37
-10,48,45,4,2,2,-14,-28
-21,-61,-44,-21,-28,-37,-24,-23
3,-31,11,4,-30,-23,-28,48
-7,12,-1,9,45,53,87,-90
-10,-25,-1,-15,-85,-77,-76,-53
21,31,19,20,78,102,13,56
-13,-3,7,-3,-15,-45,9,27
-3,-14,-14,-1,-13,19,18,-59
20,-7,14,29,80,74,97,93
-3,-11,-10,-17,-39,-84,-44,-12
-4,-9,-8,10,66,68,14,48
37,7,12,10,19,25,-25,108
-24,-22,-7,-11,-39,-36,-8,-109
-16,-16,-9,-4,-7,-14,1,19
9,7,-1,-8,-33,-21,-10,-3
-26,5,-10,-16,-38,-47,-8,-33
3,-6,10,11,16,12,-8,31
-15,-16,-12,-5,-12,6,12,1
-12,-5,0,0,-5,-4,-1,-66
-27,-7,1,-1,-3,-1,-24,17
4,-12,-9,-2,7,9,2,16
-60,-16,0,-4,-9,-1,8,-29
45,12,8,2,0,5,16,-16
-46,-19,1,1,3,-6,-22,13
-37,-1,2,-1,4,5,0,14
65,18,1,-2,-2,-2,15,-24
-54,-12,0,0,9,12,-8,-16
7,2,-6,-2,-6,-9,-10,9
25,-9,-5,-2,-2,-2,2,-11
0,-1,2,2,-2,8,6,1
-15,0,-5,-2,-4,-1,-1,-8
29,3,-2,-5,-14,-18,-13,-11
-16,-6,-1,3,2,1,6,2
2,1,-1,-1,0,3,-2,1
8,-4,-1,0,-3,-4,0,-6
-6,5,1,-3,-3,-9,-1,-9
8,-1,-1,0,7,5,-5,7
-4,-4,0,-1,0,2,0,0
12,-1,0,-2,-1,-4,0,-14
5,5,0,-1,-1,-3,-6,1
7,-5,-4,-2,2,-1,-2,3
1,-2,1,-2,-6,-4,-3,-8
-6,-2,0,0,-3,3,3,-6
7,3,-1,-2,-1,-4,-7,2
3,-3,-3,-1,-1,0,-3,2
-10,0,2,-1,-1,-1,3,-6
5,0,1,1,1,4,-2,0
7,0,-1,-1,-3,-2,-5,2
4,-3,-2,-2,-3,-1,-1,-3
-1,-2,1,-1,-1,0,0,0
6,-1,-1,-1,-3,1,0,-1
3,-1,-1,-2,-3,-5,-3,-3
-4,-1,-1,0,-1,-1,1,1
0,0,0,1,-1,1,-2,1
1,-1,-1,-2,-2,1,0,-2
-1,0,-2,-2,-3,-4,0,-4
2,0,-2,-1,1,0,0,3
-2,-1,0,-1,-1,1,-1,-2
-2,-4,-1,-1,0,-2,0,-3
-3,4,-1,0,-2,0,-2,2
7,-3,-1,-2,-2,-1,-2,-1
4,-3,-1,-1,-2,-3,0,-3
-5,-2,1,0,-1,0,0,-1
0,0,-1,-1,-1,-2,-1,0
-4,-2,-1,0,1,1,-1,-1
-3,1,2,0,0,1,-2,-1
4,0,0,0,1,0,0,-1
1,-1,-2,-1,-1,-1,0,-1
-2,-1,0,0,0,0,0,0
4,0,0,-2,-1,0,1,-1
0,1,-1,-1,-1,-1,-2,-1
-1,-2,-1,0,0,0,0,-2
0,-3,0,-1,0,-1,1,0
-4,4,1,1,0,-1,0,0
3,-1,-2,0,0,-1,-1,-1
-1,0,1,0,-2,0,-1,0
-1,-1,-2,-2,-1,1,-1,-1
-6,0,-1,-2,-2,-2,0,-2
12,4,-2,-1,0,-1,0,0
4,-3,-3,-1,-2,-2,-2,-1
-16,2,-2,-1,-1,-1,-2,-1
3,1,-1,-4,-1,0,0,2
-7,-6,1,3,-1,0,-2,-2
-2,-1,0,-1,-1,0,-1,-1
1,-2,-3,-2,-2,0,0,-1
-3,-3,-3,-1,-1,-2,0,-4
-2,3,1,0,2,-1,0,1
0,1,-1,1,2,0,-2,-2
3,1,0,1,-2,-2,-1,-1
-2,-3,-2,-4,-3,-1,0,0
-6,-3,0,1,-1,0,0,-2
12,-8,-2,1,-1,0,0,3
-9,2,0,-2,-2,-2,-2,-6
10,16,2,-1,1,0,0,4
0,-7,-2,-2,-3,-2,0,0
-2,1,-1,-6,0,-2,0,1
-4,-6,4,7,2,0,-1,0
-2,-3,-4,0,-1,-2,-1,-4
4,-3,-2,-3,-3,-3,-1,1
-4,6,0,1,-1,-1,-1,-1
6,-3,-2,-3,1,-1,1,0
-3,-3,-4,-1,-2,0,-2,-2
0,1,-2,-1,-1,-1,0,-1
-2,-2,-3,1,-1,-2,0,-2
1,0,-1,1,2,-1,0,0
-1,-2,-3,-3,-2,-1,-1,-3
10,2,1,2,0,1,2,4
-1,3,1,4,-1,0,-3,-3
-22,-12,-3,-8,-2,0,0,-2
10,10,3,8,1,0,-1,1
-7,-10,-22,-23,-9,-4,-3,-3
1,2,-1,9,5,2,1,2
10,11,41,36,11,4,3,3
7,-2,-6,-13,-3,-2,-2,-4
5,-14,-6,-2,-2,-2,0,0
-12,0,-7,-16,-10,-5,-4,-7
-11,-7,-6,-5,-4,-4,-4,-5
0,3,-9,-1,1,1,0,-1
-4,7,-3,-2,0,0,1,-3
3,-4,-11,-15,-7,-1,0,-2
-37,-30,-29,-36,-12,-6,-1,0
-3,54,69,58,18,4,-1,1
-19,-16,-16,-1,-5,-5,-5,-7
12,-14,-36,-8,-2,-2,-1,0
-58,-25,31,8,-3,-2,-2,-9
22,4,-29,-49,-14,-5,-3,1
28,26,66,78,32,16,12,14
26,37,16,-6,-9,-8,-7,-2
-28,-22,-15,23,12,1,-2,-5
-35,-29,-46,0,3,2,5,4
10,5,-25,-29,-12,-5,-4,-6
30,18,-20,-9,-1,1,3,7
-7,-6,5,-12,-3,0,1,0
42,1,53,54,15,2,-3,-2
-1,6,-51,-30,-7,-2,-2,0
-20,7,53,9,-2,-5,-1,-1
60,11,-35,-36,-17,-8,-7,-4
-25,25,44,7,3,1,2,-1
-27,-58,-24,23,11,6,0,-2
9,3,-10,-7,-3,-4,-2,1
16,40,-29,-19,-8,-4,-4,-1
46,-57,9,-3,-12,-4,-3,6
32,37,-30,-29,-3,0,4,3
-23,-52,88,49,13,2,-2,-2
31,112,-19,-3,5,4,3,1
-5,-93,-19,1,-2,0,0,-3
-1,44,11,2,-5,1,-1,6
-15,-14,18,-1,0,-3,-3,-8
12,23,5,9,5,4,2,6
-17,-18,-28,-23,-4,1,4,5
-26,-71,-17,-17,-14,-11,-11,-11
-17,-11,6,3,4,5,1,0
19,-46,43,25,8,4,0,6
-35,21,-29,-14,-7,-6,-3,-8
16,-64,-22,-8,1,0,0,-1
2,82,2,2,3,6,8,11
-24,-83,-60,-25,-14,-9,-9,-11
-7,30,32,-4,-3,-2,-3,-2
-35,-88,-3,-18,-12,-10,-7,-11
9,87,20,30,12,5,5,3
26,-38,14,15,4,1,3,7
-17,-60,3,-15,-6,-2,-2,-7
16,77,-6,8,4,2,0,1
-38,-67,-8,-1,0,1,0,-5
10,19,-44,-9,1,1,4,3
5,9,41,5,3,2,3,3
-4,-24,-4,4,2,-2,-1,-2
19,105,25,-13,-6,-3,-1,0
-2,-41,-9,1,-2,-1,1,0
-22,-43,-48,-11,-2,-1,-2,-4
24,76,-3,11,10,9,8,11
-18,-44,10,-18,-9,-8,-8,-13
-9,-58,5,0,-2,-2,-2,-2
22,79,-4,2,-2,-3,-2,2
-19,-22,-20,-11,-1,1,1,-1
-1,-97,-28,-1,-4,-6,-4,-1
-15,25,3,-10,-6,-6,-7,-9
0,-6,-42,0,2,4,5,7
8,23,37,8,-1,-4,-2,-1
6,27,-6,-9,-3,0,1,3
-10,-69,-15,-4,-3,-1,-1,-2
17,80,34,12,6,5,4,7
-16,-35,52,-8,-8,-7,-10,-14
22,19,-46,-6,-2,0,1,6
4,40,22,2,-1,-1,1,2
-27,-46,-32,-9,-3,-6,-13,-1
-8,20,28,14,5,2,4,3
-9,-4,-16,-5,2,1,-12,-41
14,32,-17,15,11,10,25,12
11,-18,25,-11,-7,-6,0,-2
-26,-11,17,-4,-6,-8,-29,30
17,-16,-27,-21,-42,-46,-23,62
3,35,8,-1,-34,-4,29,-92
-14,-3,-6,7,24,-8,-10,-39
14,37,22,21,79,75,58,78
-4,-37,-20,-7,-10,-33,21,-36
5,14,22,-11,-40,0,-115,52
-15,10,-9,2,8,44,111,47
-6,-9,-3,5,0,-30,-47,-42
-6,-12,-5,10,42,79,31,-18
-8,-6,13,13,39,28,12,37
7,2,-5,-13,-39,-45,-41,13
5,18,-5,2,11,16,-4,11
-4,-14,-5,-5,-15,-20,-5,8
-8,24,15,-4,-27,-39,-3,-25
-17,-17,-12,1,1,8,-12,-10
21,13,1,-5,-24,-13,16,-20
-2,-6,-3,-2,-18,-23,-28,-13
-16,-23,4,5,26,18,30,18
2,10,-4,1,1,-2,-5,-2
-6,4,-5,-8,-23,-22,-6,-24
22,-1,-1,2,14,16,3,13
17,4,6,4,17,3,6,12
20,6,-2,-1,-1,-3,-10,-6
81,10,1,-8,-21,-13,-8,-26
-13,-5,-5,1,13,14,4,10
-1,4,2,0,5,-3,12,2
13,7,7,-2,-7,-7,-14,-11
-27,2,-7,-4,-4,0,1,-1
-5,-6,-4,-7,5,3,4,2
32,25,11,5,1,-8,-2,-4
-19,-8,-7,-4,0,2,-9,-6
-18,0,0,1,-8,-1,-1,-1
-11,-6,-4,6,8,-1,0,-2
-14,-1,-12,-10,-6,-4,-2,-8
1,4,7,-1,5,1,-8,-4
-18,-10,0,-1,-5,-6,1,-4
2,-1,-6,-3,-6,-5,-4,-2
3,1,5,3,4,0,1,4
5,-2,-7,-1,0,-3,-4,-2
-4,0,-2,-4,-5,-6,-3,-6
-9,-7,3,3,1,1,-1,1
3,1,0,-1,2,-1,-1,1
-1,-3,-3,-1,-3,-2,-4,-4
-16,-2,1,-1,-4,-2,-1,-3
4,0,-2,2,2,1,1,1
-5,0,1,-1,-1,-3,2,-1
0,-1,-4,-4,-2,0,-5,-5
-5,-1,0,1,0,0,2,-2
-1,-3,-3,2,-1,0,-1,1
2,1,0,-2,-2,-3,-1,-2
-4,-2,-1,0,0,0,-4,-3
0,-1,-3,-2,-1,0,1,1
-4,-1,0,-1,-2,-1,-2,-1
-3,0,1,-3,0,-1,0,0
3,-2,-4,-2,2,1,0,-1
-4,-3,0,-3,1,-1,0,-2
1,-2,-1,-2,-2,-2,-2,0
2,-1,0,0,0,0,0,0
0,-2,-2,-2,-3,0,-2,-1
-1,-2,-2,-2,-3,-1,-1,-2
-4,-3,0,0,0,-1,-1,-1
0,2,0,1,-2,-1,-2,-1
-2,-2,-2,0,-2,-1,-2,0
-3,-1,0,-1,-3,-3,-1,-1
1,1,-2,0,1,1,-1,0
-1,-2,-1,0,0,-1,-2,-1
-3,-1,-2,0,1,-3,-1,-2
2,-2,-2,0,-1,1,-2,-1
-1,-1,0,-1,-1,-1,0,-1
0,-1,-1,-2,-1,-2,-1,-1
0,-2,-1,0,0,0,-2,-1
-4,0,-2,1,-1,-2,0,-1
0,-3,-1,-2,-2,0,1,0
-3,0,1,-1,-3,0,0,-1
1,0,0,1,1,0,0,-1
-5,-3,0,-1,1,-1,-1,0
5,1,0,-2,-1,-1,-2,-1
-9,-6,-3,-1,-1,-1,-1,-2
5,1,-1,-1,-1,-1,-1,0
-1,-1,0,1,0,0,-1,-2
2,0,-3,-1,-2,1,0,-2
-1,1,-1,-1,0,0,-1,0
2,-1,-2,-1,-1,-2,1,-1
-11,-2,-2,-2,-2,-1,-1,-1
8,0,-1,0,0,-1,-1,-1
-5,-2,-2,-1,-2,0,-1,-2
0,2,-1,-1,0,0,0,-1
-3,-1,0,0,-1,-2,0,-1
-5,-2,-1,0,-1,-1,-1,2
1,0,-2,-4,-2,-1,0,-2
1,-2,4,9,1,2,0,0
0,-1,-1,-1,0,0,2,-1
-7,-1,-2,-2,-1,-1,-1,-3
6,1,0,2,0,-1,-1,1
-4,-3,-3,-5,-3,0,-1,-1
-12,-12,-3,-1,-3,0,0,-2
21,11,-8,-14,-6,-3,-1,-1
9,6,18,24,7,-1,2,0
-8,2,-7,-1,-1,-1,-1,3
-7,-12,0,-8,-2,-2,-2,-4
-4,3,14,19,6,3,-1,0
-7,-8,-11,-13,-5,-2,-2,-2
5,4,2,-1,0,-1,0,1
1,-2,-13,-8,-4,-2,0,-1
-6,-3,3,0,1,1,1,1
-10,-7,5,-5,-4,0,-1,-1
-4,10,-9,-9,-2,-2,-2,0
7,0,-21,-15,-6,-4,-2,-3
-9,-1,52,43,11,4,2,0
13,3,-39,-27,-15,-7,-6,-5
8,-15,-40,-4,-6,-4,-3,-3
2,42,94,64,30,15,5,7
-3,-5,-15,-2,1,0,1,1
-8,-8,17,16,5,-1,0,-1
-8,2,-7,-11,-7,-4,-2,-2
21,-26,-56,-38,-17,-9,-5,-5
-24,-22,-27,-23,-8,-3,-2,-2
-18,12,18,-6,-1,0,-3,-6
31,5,-27,-15,-1,4,5,8
-21,-8,-30,-9,-13,-8,-5,-7
-3,5,60,-8,8,2,-3,-1
12,-17,-19,-11,8,6,7,9
-3,38,33,23,10,4,0,1
0,8,-7,-19,-17,-8,-4,-4
12,18,5,47,19,8,3,6
18,42,0,0,4,1,0,3
-40,-75,-12,-13,-2,-2,-6,-14
-24,-9,-28,-23,-14,-8,-4,-3
15,12,22,-19,-14,-9,-6,-9
1,13,19,8,-1,1,0,3
-12,-3,-38,23,5,-1,-3,-5
2,44,4,-12,-1,0,-1,0
-9,-26,-8,-18,-9,-7,-5,-8
-21,-33,2,17,5,0,-3,-3
33,-26,-19,-35,-14,-7,-3,2
-24,-39,-5,22,8,3,-2,-3
-29,-53,-114,-75,-22,-6,-2,-5
9,83,110,99,31,10,3,2
-3,36,-16,-6,-1,1,1,4
33,-47,16,5,7,-2,-6,-14
11,-2,-71,-28,-15,-9,-7,0
-10,-8,-23,-45,-20,-9,-6,-6
-7,-34,-17,1,-2,2,2,1
1,16,43,41,20,12,5,7
2,44,52,-14,-3,0,0,1
-2,-59,-47,-17,-8,-8,-8,-10
-23,-20,6,20,5,1,0,-6
14,9,16,-9,-2,4,6,8
-6,14,-7,4,-2,-1,0,-4
18,12,-42,-6,3,6,8,11
24,111,89,16,5,-2,-2,2
-23,-72,-18,-14,-6,-6,-8,-9
-11,-59,-13,14,2,1,2,-2
0,-20,-12,0,-4,-1,-1,0
-14,-26,-43,-35,-11,-7,-3,-6
4,-1,22,6,0,-2,1,0
4,23,24,15,3,-1,-1,-1
-11,-72,-39,-32,-15,-7,-2,-2
-6,39,24,-5,-2,-3,-1,-5
-3,32,21,11,-1,-4,-4,-1
11,27,-12,4,-1,-1,0,5
-11,-36,-22,-6,7,8,8,2
16,20,-8,12,7,5,3,4
-11,-66,-55,-5,4,4,4,2
-4,1,7,1,-4,-5,-2,-4
-10,26,4,-5,-2,1,-1,-4
-18,-42,9,7,2,0,0,-2
1,64,9,-8,-3,-2,-1,3
0,-87,3,9,5,5,3,1
5,-37,-43,-5,-4,-1,-1,-2
0,-25,44,4,-3,-3,-3,-3
6,3,-15,-5,-3,-2,0,-1
-3,-2,3,7,3,-1,2,2
4,38,11,2,-1,-2,3,25
-4,-27,-11,-4,0,5,1,-36
23,21,-31,-2,0,1,-1,3
-9,3,4,-3,-29,-43,-47,11
-4,-9,-5,-14,-30,11,20,-1
10,7,12,17,52,31,75,-12
-10,-11,-5,3,14,20,-47,-46
2,19,2,3,7,2,47,8
4,37,16,-17,-83,-122,-74,14
-5,1,12,10,57,84,8,-9
25,36,13,5,5,-17,40,47
-12,14,-3,12,50,67,-31,-29
8,5,15,1,11,9,43,-31
-5,12,-9,-1,-37,-50,-51,42
-15,-26,4,-3,-14,-26,-8,-40
-8,-1,-5,-4,-19,-22,0,23
19,17,-1,0,9,10,8,-12
6,6,2,-9,-28,-21,-13,-2
-7,8,0,-3,-6,7,4,14
5,10,-2,-5,-35,-43,-8,2
-5,16,12,12,44,57,0,-9
-3,-9,-1,4,8,-9,2,12
-31,-2,7,-2,-1,-5,-7,11
5,3,-5,5,10,16,16,-15
17,-4,2,0,7,0,-6,15
0,-5,-1,-6,-15,-16,-11,-1
17,3,-5,-5,-7,5,7,-2
-5,6,-1,-1,1,1,3,-2
-4,-1,3,0,11,13,2,-2
-9,-7,-1,-5,-17,-18,-8,2
28,12,-5,4,3,7,2,2
-4,2,2,-6,1,5,4,0
-27,-4,6,7,9,-1,-7,-1
-27,-23,-7,-1,-4,-1,-1,-4
77,24,-1,-23,-9,0,2,18
-26,-15,-5,15,13,8,-1,-6
-16,-5,-1,-8,-1,-3,-1,-4
-14,-2,1,0,-6,-3,-3,-1
-16,-9,-4,-2,0,2,2,1
12,5,-1,-7,-8,-9,-1,-2
3,0,1,0,2,2,-4,-5
7,-3,-5,-2,-4,-3,-2,0
-6,6,2,3,-1,-5,-4,1
11,3,-4,-3,1,2,3,-4
-12,-6,-1,2,1,-2,-2,1
15,4,0,-5,-4,-2,-5,1
-27,-8,2,6,0,-3,-1,-4
-3,1,1,2,0,0,-2,-1
5,0,-1,-2,1,1,-2,0
6,6,0,-5,-6,-7,-3,-1
-13,-2,2,2,2,0,0,-4
12,4,-2,0,1,2,2,1
3,-1,0,-4,-3,-1,-4,-3
1,1,0,2,-2,1,-2,-2
-12,-3,-1,2,4,1,-1,0
7,1,0,-2,-2,1,-2,0
-4,-4,-2,0,0,-1,-1,-2
-1,1,0,-1,-3,-2,-1,-2
-3,-3,-1,0,-1,0,1,0
2,4,-1,-3,0,-2,0,0
2,1,1,-1,-3,1,-1,-1
5,2,0,-2,-1,0,2,2
-2,0,0,-1,-1,0,-1,-1
2,0,-1,-1,-2,1,-1,0
0,-2,-1,0,1,0,-1,0
3,0,0,0,0,1,-3,0
-6,-2,-1,-1,-1,0,-1,-1
-1,-2,-1,-1,-4,0,1,-1
2,-1,-1,0,-1,0,-1,-2
0,-1,-1,-2,-1,-2,-1,-1
-3,0,-1,0,-1,0,1,-1
1,-1,-2,-1,-1,-1,-1,0
0,1,2,1,2,-2,-1,-1
0,0,0,-1,0,-1,-2,0
-3,-2,-1,1,0,0,-1,0
0,0,-1,-3,-1,0,-1,1
-1,-3,-1,-1,1,-2,0,-1
-3,0,-1,-3,-2,-1,-1,0
1,-1,2,0,-1,0,-1,-2
0,1,-3,-2,-1,-1,-1,1
-3,-3,-3,-2,-1,-2,-1,0
0,0,0,0,0,-2,1,-1
-3,-1,1,-1,-2,-1,-1,0
-2,-1,1,-2,0,0,0,-1
-4,-1,-2,-1,-4,-1,0,0
3,1,-3,-2,-1,-1,-1,-3
6,4,0,1,0,-1,1,-1
-8,-4,1,0,2,-2,-1,-3
1,1,-2,1,0,0,1,1
-3,-4,0,-2,-2,-1,-1,-1
-1,-3,-2,-1,-1,-1,-1,-1
5,2,-1,1,0,0,0,-2
3,0,0,-2,-1,1,-2,0
-1,1,-2,0,-3,-2,0,0
-2,-2,-2,0,0,0,-1,-1
-6,-2,-2,-1,-2,0,-1,0
8,2,0,0,0,-1,-1,-3
2,0,0,-1,0,-1,1,0
-3,0,-1,-1,-1,-2,-1,-1
-6,-3,-2,0,0,-3,0,-4
6,-1,0,0,-1,0,-1,2
-5,0,-1,0,0,0,1,0
14,3,-1,1,0,-1,1,0
1,2,1,-1,-2,1,-2,2
-17,-7,-4,-2,-2,-2,0,-1
2,-1,-2,0,-1,0,-2,-1
-6,0,-1,-1,-1,-1,-1,1
8,1,-2,1,-1,-1,0,1
0,-3,-1,-4,-1,-1,-2,-3
0,1,-1,-1,-2,0,0,1
-31,-9,-3,-1,-2,-1,-1,-4
9,-6,1,0,-1,-1,-1,-2
19,23,3,0,-2,0,-2,-3
-5,-17,-5,-5,-1,-5,0,1
-5,-2,-1,0,0,1,-1,-1
-7,-2,0,0,0,1,0,-3
-4,-4,-1,0,-1,0,-1,0
5,6,0,-1,0,-1,-1,-2
7,1,-1,0,-1,-2,-4,-1
-2,-5,-7,-7,-2,0,-1,0
2,3,2,3,1,0,-1,-1
-1,-1,-1,-3,-2,-2,-2,-1
-3,-6,-1,-3,-2,0,1,0
-1,4,1,1,0,-2,-1,0
-5,-7,-3,-1,-1,-1,-1,-1
-3,-1,-1,1,-1,-2,-1,-1
4,0,1,-2,-2,0,-1,0
-1,-2,-1,-3,0,-2,-1,-2
-3,-1,-3,-3,-2,-2,-1,0
-2,-5,1,0,1,-1,-1,0
3,2,-2,-1,-2,-2,0,0
0,-1,0,1,0,1,0,-1
7,5,-1,-1,-1,-1,-1,-1
17,1,-2,-1,-2,2,-1,1
-22,-12,-5,-3,-3,-2,-3,-6
17,10,4,2,1,2,1,3
-4,-3,-2,-2,0,-1,0,-1
1,5,2,-2,0,0,-2,-1
0,-1,0,0,0,-1,0,2
-8,-4,-2,0,-3,-1,-3,-2
0,-6,-1,-2,-2,0,1,0
-9,-2,-1,-2,-1,0,-2,-2
-2,-1,0,-1,-1,-1,-1,-2
-3,1,-1,-1,-1,-1,-1,-1
-4,-1,0,-1,1,-2,-2,0
-4,-3,-2,-1,-2,-2,-1,-3
0,0,1,0,0,0,-3,-1
14,2,-1,-2,-3,-2,-1,-1
-11,-4,-4,1,0,0,-2,0
-5,0,2,1,-2,-1,0,-1
9,2,0,0,-1,-1,0,0
-11,-5,-2,-2,-3,-2,2,-1
6,-2,-2,-1,-3,0,-1,-2
0,2,0,0,1,0,0,0
7,0,-1,1,1,1,-1,1
-17,-8,-2,-1,-1,-3,-5,-6
-3,-2,-1,0,-1,-1,-2,0
9,8,-1,-1,-3,-1,1,1
-4,-4,-1,-2,-2,0,1,0
-3,1,-1,0,0,-1,-1,1
-4,-1,1,0,0,0,0,-2
6,0,0,-1,0,0,0,-2
4,5,2,-1,0,-1,-2,2
-2,0,-3,-1,-2,-1,-1,0
-9,-6,-2,-1,0,-3,0,0
-3,0,1,5,0,2,0,0
0,3,1,-1,-1,-2,0,-1
1,0,0,0,0,0,-1,-1
2,-1,-2,-1,-3,-2,0,-1
-14,-13,-4,-3,-3,-1,-2,-1
0,0,-3,-3,-2,-2,-1,-1
6,2,1,1,2,-1,-2,-1
1,0,0,0,-2,1,-1,1
-5,4,-2,-1,-1,-1,0,0
1,1,0,1,-2,0,1,-2
-1,-2,-1,-2,-1,-1,-1,0
3,3,-3,-1,-1,-2,-2,-1
4,-8,-1,-2,0,-1,-2,-1
2,0,-1,-1,-1,0,-1,1
-5,0,1,-1,0,-1,0,-2
-1,3,1,0,0,-1,-1,0
-3,-4,-2,-2,-1,-1,-1,-1
5,4,-2,-1,-2,-2,-2,-1
-2,-6,-1,0,-1,0,-1,-2
-3,-2,0,-2,0,0,-2,0
-12,-1,-3,-3,-3,-1,-1,-1
-10,-10,1,1,1,0,-1,-2
20,2,-1,-1,-1,2,1,0
-20,-2,-2,-2,-1,0,-2,-3
-1,1,0,0,1,-1,-1,0
13,0,-3,-1,-2,-3,-2,-2
-3,1,0,-2,-2,-3,-1,-1
1,-4,-2,0,0,-1,-1,0
7,1,-1,-1,0,0,-1,-1
-13,-2,-4,-4,-2,-1,0,-1
-12,-8,1,1,1,-1,0,-1
18,8,2,1,1,0,-1,-3
-6,-2,0,-1,-2,-2,0,-1
0,-3,-3,1,0,-1,-2,0
-7,-2,-4,-3,-1,-1,-1,-1
-6,-8,-3,-2,-2,-1,-1,2
3,2,-1,-2,-2,-2,-1,-1
1,1,1,1,-2,0,-1,-2
2,2,-2,1,-2,0,-1,2
-2,-1,0,0,-1,-1,-2,-2
-9,13,1,-1,-2,-2,0,0
-6,-10,-2,-4,-2,-1,0,1
9,2,-2,-3,0,-1,-1,-1
-2,-1,-2,-1,0,-1,1,-3
2,-2,-1,-1,-1,-2,-3,-1
1,3,0,1,2,1,-1,0
-6,-3,0,-3,-1,0,-1,-1
4,-2,-2,-1,0,0,1,-2
-1,-2,-1,-1,-1,-1,-1,0
-20,-4,0,0,1,-1,0,0
16,-1,-1,-3,-1,-1,-1,-1
0,-2,0,-2,-2,-1,0,0
4,-2,-3,-1,1,-1,-1,-1
-6,-3,-2,-2,-3,-1,0,0
-14,-2,1,0,-1,-2,0,0
3,4,-1,1,0,-1,0,-1
5,-4,-1,1,0,-1,-3,0
14,10,1,-2,1,-1,-1,-1
-4,0,-2,-2,-3,-1,0,-1
-6,-8,-1,-1,-3,-1,-2,-2
1,-1,-1,-1,-1,-1,1,-1
0,-1,-3,-1,0,1,-2,-1
-1,4,0,0,-2,-1,0,-1
-9,-6,1,0,-1,0,-1,-1
27,6,-3,0,-2,-1,0,2
-27,-11,-1,-2,-2,-4,-2,-3
9,3,2,-1,0,0,-2,1
-6,-3,-1,-2,-2,-3,0,0
3,-2,-1,-1,0,-1,0,0
9,3,0,0,-1,0,1,0
-3,-1,-1,1,0,1,-1,0
-5,-1,-1,-1,-1,-1,-1,0
-9,1,0,1,-1,-2,-1,-3
-3,-6,-1,1,-1,-2,0,1
5,7,-2,-1,-2,-2,-1,-3
15,5,0,-2,-1,1,0,4
-20,-4,-1,0,-1,0,-1,-5
1,0,-2,-1,-2,1,-1,-1
-5,-4,-3,-2,-1,-2,0,-1
9,0,-1,-2,1,0,-1,1
-15,-5,0,0,-1,-1,-3,-1
8,5,0,1,-1,-1,0,-1
-6,-9,0,1,0,0,-1,-1
-4,5,-2,0,0,-1,-1,-4
-2,-13,-2,-2,1,-1,0,0
-6,0,-1,0,-1,0,-1,0
2,-2,-2,-1,-1,0,-2,-1
-7,-2,-1,0,-1,-1,-1,0
-2,0,-3,-3,-1,1,0,0
17,0,-2,-1,-1,-1,0,-1
-8,5,1,1,0,0,0,-2
0,4,2,0,0,0,-1,-2
7,-4,-1,0,0,-1,0,0
-19,-2,-2,-1,-2,-3,-2,-5
-5,-1,-1,-2,-2,-2,-1,-2
0,-2,1,-1,-2,-1,1,-2
-2,5,1,1,-3,0,-2,-2
12,-13,-4,-1,-1,1,-1,1
-11,-9,-3,-1,0,-1,-1,-4
-3,-1,-3,-1,0,1,-1,-1
7,4,-1,0,-1,0,0,0
5,4,2,-2,-1,-1,-1,1
-1,1,-1,-1,-1,-1,0,1
-4,-5,-1,-1,-2,-1,-1,0
3,0,-1,-1,-2,-2,-1,-2
-4,-3,-2,-2,-1,0,-1,0
10,4,2,1,1,0,-2,1
15,-4,-1,-1,-1,-1,0,3
-26,-2,-2,-2,0,-2,-1,-6
3,7,-3,-1,-1,-2,0,1
-7,-14,-8,-5,-3,-2,0,-1
3,1,4,-6,-5,-2,-2,-2
5,-3,-4,-2,3,2,1,0
2,9,21,22,4,3,0,0
-2,-3,-7,-4,-3,-1,-1,0
-2,-1,-4,-1,1,-2,-2,-1
1,-2,-6,-7,-3,-4,-1,-1
-1,1,-6,-8,-2,-2,-1,-3
9,3,2,2,2,-1,0,0
-12,-5,-5,-1,-2,-1,-1,-3
0,-2,-1,-1,-1,-2,-1,-1
4,2,0,-4,0,-1,0,0
-5,2,4,8,0,-1,0,0
-5,-5,-2,-4,0,0,0,-1
1,3,4,2,-1,-1,-2,-1
1,-2,1,0,1,-1,0,-1
-2,-3,-2,-5,-2,1,-1,-1
-2,-2,-5,-2,-1,-3,-1,0
4,2,7,7,1,1,-1,0
-10,-7,-7,-6,-1,1,-3,-1
-2,-5,-7,-5,-3,-3,0,-2
-20,-3,-11,-5,-3,-1,-1,1
20,22,36,29,8,4,1,0
-3,-13,-7,-8,-2,-2,0,0
11,4,1,-5,-2,-2,0,3
-13,-7,-8,-3,-3,-2,-2,-4
-9,-11,-14,-1,-4,-2,-1,-1
0,-5,-8,-15,-6,-4,-1,0
-1,3,-13,-18,-3,-1,-3,-3
7,-2,5,-4,-1,-1,0,-2
-15,3,6,3,8,4,1,4
20,18,20,13,3,0,0,-2
-7,-9,-15,-13,-6,-4,-4,-3
-3,-14,-12,-12,-5,-4,-4,-7
-8,-10,-14,-12,-5,-2,-2,0
-3,-11,-52,-12,-11,-6,-3,-2
-23,-8,69,31,16,9,5,0
40,17,13,18,-4,-5,-3,2
-5,12,-19,-45,-8,-1,1,0
18,32,73,102,35,11,4,5
-14,-10,-48,-43,-20,-12,-5,-4
-17,-19,-17,-32,-13,-8,-6,-6
8,-6,-1,52,21,10,4,3
23,3,-110,-62,-14,-4,-3,1
-13,-12,22,6,-1,-2,-4,-6
30,-20,-50,-25,-10,-3,0,2
-25,-33,-15,-19,-16,-12,-7,-9
-35,-41,77,-10,-2,2,1,-5
22,31,-111,-5,-2,-2,-1,2
8,43,104,69,26,14,8,10
29,-7,15,46,12,6,4,6
-15,47,10,11,9,3,-2,-5
-18,-41,0,-26,-13,-7,-4,-7
-20,-52,-46,-20,-7,-5,-3,-7
6,35,-53,-53,-27,-11,-10,-5
-10,12,33,24,4,-3,-2,-3
13,-26,-6,6,1,1,-2,1
-8,57,15,2,4,2,-2,-2
-20,-63,-23,1,-3,-6,-6,-11
-11,-40,-23,-37,-17,-8,-4,-6
-5,46,72,20,10,3,0,1
17,27,-28,16,-2,3,4,7
2,-4,-11,-38,-13,0,1,1
4,1,-21,13,18,3,2,3
11,3,7,17,13,5,4,4
-19,-28,20,-3,4,-3,-4,-5
2,32,13,2,-2,-3,-1,1
-2,-30,-21,-8,-10,-3,-2,-1
15,78,28,5,1,-4,-1,1
-17,-28,-16,-14,-5,-1,0,-1
19,6,3,-3,-2,1,0,-1
-2,-17,0,-1,1,1,-1,-5
-7,-33,-15,2,-2,-1,-1,-3
-4,3,-9,-8,-4,2,-14,10
9,-13,34,18,11,4,31,-2
7,9,-7,-14,-7,-5,-10,8
-56,-17,-7,2,-1,-15,-94,3
42,35,10,11,7,23,104,-41
-23,-9,-1,2,9,17,-17,25
16,14,-7,-11,-8,-4,-2,-2
-14,-16,-4,0,-1,-2,-11,2
-8,-18,-6,-1,-1,-17,-28,-1
-50,8,-3,-7,-5,-7,-33,-25
-44,-10,8,1,-3,-3,21,-10
69,4,-9,-2,-3,2,29,21
44,12,16,-3,3,15,13,36
-19,-6,-12,-1,3,4,20,-2
16,8,8,3,-2,-4,-26,-11
20,9,-3,0,-1,-4,1,0
-39,-2,-4,-1,-1,-4,-5,-13
5,1,2,-2,-3,-4,-1,27
-23,-10,-2,-1,1,-2,-15,-15
43,6,-2,0,-2,5,26,-7
-29,-22,-3,3,-1,-2,-18,2
50,25,3,2,0,-8,-12,5
13,3,-4,-5,-5,1,7,5
7,10,-6,-8,-4,2,15,0
-26,-22,-6,-10,-5,-6,-19,1
-59,-37,15,16,4,-3,-3,-23
-13,29,1,16,3,4,10,6
-15,-25,-38,-49,-9,3,-1,-12
45,46,90,54,12,-3,-14,2
27,29,-49,-24,-8,-7,1,-11
1,-80,-19,-31,-7,1,0,3
-17,45,-3,19,5,3,6,7
-68,-15,-30,-26,-6,-6,-8,-12
22,-6,27,9,-2,-2,1,0
7,15,-44,-8,-4,-2,-1,6
-4,-12,35,3,-4,-5,0,-4
28,9,-17,-6,-1,-3,-3,7
15,21,-12,12,5,4,1,1
-16,-24,24,-3,-4,-6,-7,-7
-1,11,6,9,1,1,3,-1
1,12,0,7,0,-4,-6,1
-15,-21,-9,-13,-7,-6,-29,-14
18,2,-8,-4,-8,-7,9,102
-2,-4,2,12,4,6,1,-8
-3,-12,0,-4,9,14,43,31
10,7,-2,-2,1,5,11,11
18,21,15,1,-9,-8,-39,-21
-4,-6,13,9,11,-5,-15,52
-15,-1,-22,-9,0,2,29,-83
12,-1,14,-3,0,-7,-36,26
-11,9,1,4,3,11,30,-39
-11,-17,-9,-5,-4,-2,-10,-13
-23,-23,-17,-5,-4,-6,-17,9
1,10,4,2,1,1,20,4
4,8,4,1,0,-3,-15,-16
75,6,-9,-1,-5,-3,12,-15
-8,-6,-4,-6,-3,-3,-20,21
11,7,12,1,-4,0,5,-11
-20,-10,-17,-5,1,3,4,2
-66,-7,10,-3,2,6,14,-6
45,3,-50,2,-3,-2,-17,0
-14,-6,37,5,-5,-5,1,-2
-2,31,-57,-59,-5,4,7,6
8,7,40,64,31,17,14,10
34,33,-30,-26,-12,-10,-20,4
-40,-4,13,16,7,3,10,-11
17,-54,-32,-33,-14,-7,-3,-1
-18,37,-35,-24,-14,-7,-2,-4
-39,-28,28,-10,-9,-5,-11,-9
21,-19,20,24,6,2,4,3
17,34,50,9,5,0,3,1
-9,-28,37,46,10,1,-3,-5
-7,8,41,8,-1,-2,-4,4
-11,-8,-48,-33,-10,-6,0,-2
-7,-12,17,13,1,-4,-6,-10
-9,-22,-34,-18,-8,-6,-2,-8
-3,4,2,-6,-4,-4,-5,4
3,2,23,2,2,0,3,-1
5,7,-69,12,4,2,1,2
-2,11,12,-22,-9,-4,-3,-5
-5,-25,6,3,2,1,-1,2
12,41,-28,-5,1,1,1,2
-11,-15,14,16,2,-1,1,-5
48,-14,-5,-11,-7,-1,-1,-2
-58,3,-18,-1,0,0,-2,-8
14,1,-9,-5,-2,-2,1,-1
0,13,28,5,1,0,0,2
-9,-27,-37,-12,-5,-2,0,-2
17,3,56,13,4,3,1,7
7,-11,-76,-15,0,-1,0,0
-9,11,14,10,0,0,0,-2
6,-6,3,-5,-1,-2,-1,-1
3,-7,-9,-1,-1,-4,-18,2
-18,-18,14,-7,-9,1,37,17
-7,-4,5,8,7,3,-16,-41
-7,9,-1,-4,-1,-1,-3,0
6,-7,-9,1,1,1,5,4
4,3,1,-5,-3,-2,-11,-1
7,0,4,5,0,1,5,9
-20,-3,17,-2,-3,-1,1,-4
5,17,-25,-4,1,0,-2,2
5,-3,2,-3,-2,0,-6,-2
2,-2,6,2,-3,-1,6,5
-24,-10,-6,-5,-2,-1,-7,-5
44,-11,11,-2,-2,-2,3,5
-16,1,-22,-4,3,0,-3,-5
18,10,9,3,2,-1,0,4
-5,-1,-9,-11,-4,-2,0,0
-2,0,-6,12,0,1,3,1
4,-10,13,-8,-2,-4,-7,-7
-14,7,-4,-1,-3,-1,-2,2
-19,4,10,4,3,-1,0,-3
9,0,-7,-5,-1,-1,1,1
-32,-4,1,-4,-1,-2,-7,-8
-10,-5,-6,-2,-7,-1,2,7
8,-20,27,10,1,-1,-2,-1
22,61,-12,-9,2,0,1,-1
10,0,-1,-9,-4,-2,-5,-1
5,-5,1,24,5,1,2,0
8,3,20,8,-1,1,1,2
-9,-10,16,8,3,2,0,0
-19,-7,-3,-7,-3,-1,-2,-3
18,9,-2,-9,-3,-3,0,2
-36,-13,-24,-11,-2,-3,-2,-6
-4,-7,-4,-1,-1,-1,-1,2
24,15,-14,2,0,0,1,2
-14,-16,-2,-3,0,-1,-2,-5
21,17,-1,1,0,0,0,2
-17,-27,-17,-6,-3,-2,1,-2
-14,0,23,7,-1,0,-1,-4
-7,-3,-4,-5,-2,-1,-2,-2
14,6,-12,-4,-1,0,0,2
-20,-13,-3,-1,-5,-2,-3,-5
-2,-25,4,-3,-1,-1,-3,1
21,63,6,23,11,4,5,9
14,-11,-10,-5,-3,-2,0,2
5,-10,-10,-6,-3,-3,-3,-5
-33,0,-2,1,-2,-2,-3,-8
2,-11,8,-13,-4,-2,-3,-2
10,8,0,1,1,0,1,0
-26,-12,-18,-2,0,-1,0,1
21,2,17,0,-1,-1,0,-1
-10,-14,4,-7,-5,-2,0,-1
0,15,-4,0,0,-1,-1,-1
11,-5,1,3,0,-1,0,-1
-1,12,-1,4,1,1,0,1
-26,-6,4,-3,-3,-2,-2,-4
-7,-4,-9,-3,-3,-2,-2,-3
-7,6,11,1,0,0,0,0
13,4,10,4,2,-1,-1,0
1,-8,-11,-6,-1,-2,0,0
-3,-1,0,-3,-2,-2,-1,1
12,3,-1,-1,0,-2,-1,-2
30,-10,0,4,-2,-3,-5,-4
12,18,8,-12,-7,-1,-2,2
-7,4,-31,5,0,1,0,-2
25,3,9,4,4,0,0,2
-8,-7,-4,6,1,1,1,2
1,-8,4,-7,-2,-1,-2,-2
3,3,4,-5,-4,-3,-1,-2
-8,-5,-15,-5,-3,0,-1,-2
-7,-2,1,0,-1,1,-1,0
-2,-6,-2,-1,-1,-1,-1,-3
-2,-3,-6,-7,-2,-1,-1,-3
-16,0,8,2,-2,-1,-2,-1
-16,-12,-2,-2,2,0,1,4
6,6,-3,-3,-2,-1,-2,-2
10,-9,8,6,5,3,0,2
-11,-3,-16,6,-4,-3,-2,-2
17,-5,-9,-12,-3,0,0,1
-12,22,57,38,14,4,1,3
-4,13,9,-8,0,-1,0,1
-9,-3,-12,-12,-4,-1,-1,0
-26,-36,-28,-16,-13,-6,-2,-5
18,23,5,6,8,1,0,1
1,0,-11,-4,1,0,-1,-1
3,4,36,-4,-12,-1,0,0
-13,-5,-16,14,4,2,0,-1
1,-22,-26,-12,6,-2,-3,-3
-13,-7,4,4,0,-2,1,0
-1,2,2,1,4,0,-1,0
9,-2,9,-14,-7,-5,-6,-6
-1,-1,-8,8,-6,-1,1,0
4,12,1,5,0,0,-1,1
2,-7,0,-1,1,-2,-1,-2
-2,12,-5,-13,-4,-2,-2,0
-8,-22,11,9,4,1,1,-2
-25,17,-11,-7,-6,-4,-5,-5
58,-11,-13,-9,-5,-1,-2,-1
-2,20,-1,4,5,1,0,1
-7,-21,-32,-22,-11,-6,-4,-5
-3,2,5,-8,0,1,2,0
0,9,6,6,4,2,-1,-3
12,11,28,28,9,5,2,4
-3,-25,-11,-17,-8,-3,-2,-2
0,-22,-13,-4,-4,-3,-1,-2
-7,5,19,6,3,1,0,-4
-8,11,-18,-6,0,1,2,3
-5,8,-13,-4,-6,-3,-2,1
23,30,26,3,1,2,-1,3
20,-6,-27,-4,-2,-1,2,6
1,-7,11,2,0,-1,-2,7
-2,-4,13,-2,-5,-3,-19,-9
-5,-9,-20,-6,-16,-7,5,-38
-7,12,-2,9,40,19,21,-1
-3,-3,3,-1,1,-1,20,14
-1,-6,-6,-4,-14,2,5,6
-4,-11,6,3,0,-11,-15,3
-17,-4,-1,-1,-20,-15,6,-1
2,1,4,-7,-5,-3,-20,-4
-8,-3,-1,14,5,-1,6,0
7,-6,-4,-6,1,3,6,8
-25,-11,3,6,-4,-3,-12,-7
8,9,2,9,15,5,2,-2
6,3,-2,-12,-16,-8,-3,0
-6,-6,3,2,-1,-1,-2,2
-13,-12,-10,3,8,7,-2,2
11,9,-4,-8,-19,-10,-2,-2
-17,-9,-16,-24,2,0,2,-16
2,-10,12,25,13,8,2,9
8,39,13,-8,-5,-3,-4,7
-39,-12,-70,-40,-11,-2,0,-8
3,-5,33,29,8,2,3,4
20,23,34,13,15,8,3,10
9,-20,-1,-14,-12,-3,-5,-2
8,40,19,-4,-3,-3,-2,-5
-1,-21,-30,23,11,6,5,10
-35,-56,-42,-34,-10,-5,-3,-8
-14,46,18,24,4,0,-1,-3
-47,-29,-29,-7,-13,-4,-2,-5
82,45,81,33,31,14,7,14
-18,-26,-5,1,-5,-4,-3,-6
-8,-86,-63,-15,-10,-10,-9,-5
15,89,0,3,2,-1,1,3
-30,-42,-32,-32,-27,-18,-9,-15
-5,5,-25,-4,0,-3,-1,0
27,10,5,-5,-1,1,1,5
14,-5,24,10,-11,-8,-2,0
-6,19,9,22,28,13,4,-1
3,-31,2,-3,1,-3,-1,-2
-21,-1,0,-12,-6,-1,3,20
13,-6,22,20,7,1,-21,-53
-2,10,-7,-10,-8,-2,8,8
1,17,-4,-5,-35,-35,-3,12
-1,11,5,10,44,48,15,6
9,-27,9,0,4,0,1,8
-1,10,-8,-6,0,-2,-4,11
-4,-1,-13,-11,-15,-20,-31,-44
2,17,15,4,-16,-1,7,27
7,-13,1,-12,-42,-22,-22,6
-14,-11,-25,-24,-4,-1,22,7
13,23,17,27,54,52,23,36
-1,0,8,3,19,10,-5,-16
-2,-12,8,12,26,10,9,-3
-5,3,-11,-21,-46,-37,-25,-1
-3,-3,2,-3,-24,-16,-2,-2
5,7,-3,1,-3,-5,6,-10
-2,-11,6,3,1,-4,-2,4
-3,4,-3,-3,-2,-2,-4,-4
-1,5,5,-1,7,7,9,-4
2,-9,-11,-13,-2,-6,-8,-10
43,-12,-18,-1,1,2,8,18
-11,12,26,23,10,11,2,-6
-17,-4,-2,-9,5,11,5,-5
33,-1,-13,-1,-23,-24,-11,2
12,7,28,5,5,7,6,5
-40,-21,-10,-11,-2,3,-1,-10
46,1,-93,-62,-12,-5,-4,5
-89,0,112,54,13,2,3,-11
11,14,-97,-44,-2,1,2,-3
68,52,90,81,30,20,5,7
-37,-8,30,14,6,1,3,4
-11,32,-7,-52,-25,-13,-8,-11
-23,-7,16,27,21,13,9,4
-63,-60,-29,-14,-6,-4,0,2
45,20,-84,-51,-29,-15,-13,-9
38,14,24,68,37,13,6,5
-30,-12,-10,-18,-7,-9,-3,-5
3,12,3,-2,-2,-4,-3,-2
-22,-23,-31,-30,-10,-4,-4,-4
8,62,3,-1,-9,-8,-5,-3
-23,-97,-42,11,5,1,0,0
13,73,16,-12,-9,-9,-11,-11
-3,-39,36,30,7,3,3,1
9,19,-10,-24,-17,-13,-9,-6
-4,-50,1,21,8,5,1,-1
21,42,-29,-45,-9,-6,-4,-5
-11,-25,48,46,14,5,3,0
1,17,9,-17,-12,-5,-5,-1
-8,2,50,37,9,4,4,-1
10,-4,-18,-22,1,3,0,-1
-13,-30,-41,-1,4,6,5,6
-7,26,16,-6,-12,-12,-11,-12
-3,-32,22,-12,-8,-7,-7,-3
5,-66,-69,-15,-6,-2,-4,-5
-5,34,23,10,7,5,6,3
16,19,-26,-12,-3,-1,2,5
-22,-24,23,-15,-14,-11,-12,-15
0,10,27,23,12,6,3,6
2,-62,-30,-8,-6,-4,-5,-4
-23,-111,-39,-6,1,2,2,-3
9,102,18,-8,-7,-4,-4,-4
-34,-84,-9,-12,-6,-2,-1,-5
0,69,5,-6,-8,-3,-4,-4
18,23,-1,-2,-5,-6,-5,-2
-25,-111,-34,-1,6,6,5,3
1,127,50,2,-1,-2,-3,-9
-2,23,38,-1,-3,-5,-4,-4
5,-27,-39,-3,0,1,5,4
21,25,49,26,14,7,6,10
-36,-100,-60,-21,-7,-4,-4,-10
-2,39,29,8,4,-1,0,-2
-20,-34,-3,-2,2,4,3,-1
9,7,-34,-10,-6,-1,1,0
13,6,-27,-6,2,-3,0,-2
14,61,57,15,0,-1,-3,0
-19,-60,-20,-7,-5,-3,-17,11
-12,-25,-15,-11,-6,-3,16,-11
8,-29,-3,8,13,8,-10,33
1,-34,-11,10,21,13,19,-11
0,21,-4,-3,-18,-22,0,-4
14,50,8,-20,-68,-60,-75,63
-8,-14,-14,-14,-48,-10,51,-49
10,10,26,36,87,43,20,-52
3,-7,2,18,81,76,18,-12
11,36,12,13,58,30,60,-15
16,15,4,-9,-39,-39,-33,25
-8,-6,-10,-14,-51,-55,-9,22
-1,4,4,0,2,22,-4,-1
1,29,-7,-8,-21,-24,-30,-19
1,13,7,20,76,66,7,-6
9,19,9,-1,-19,-16,-10,4
3,-4,-7,-7,-27,-38,-6,14
-3,12,1,-4,-4,29,7,-2
-15,10,-1,-8,-23,-34,-6,-4
-2,-12,-7,1,-3,7,-1,9
-10,0,-6,-5,-9,-12,-2,-10
-1,5,-1,0,7,3,9,-7
29,-7,-14,-13,-4,-4,-1,-2
-48,-15,-1,-3,-11,1,-9,9
-6,-1,1,-6,-17,-11,2,-5
19,29,-10,-16,6,3,6,0
16,3,15,33,14,7,-2,13
-9,-25,-2,-7,-7,1,0,6
-35,4,-17,-7,-5,-5,3,-2
0,2,9,9,2,5,1,-5
-1,24,4,-14,-1,-6,-4,-1
-15,-13,9,13,3,7,0,2
20,-13,-43,-28,-17,-9,-1,-4
17,28,57,49,14,1,0,7
-22,-38,-34,-23,-8,-2,-5,-9
6,38,66,42,10,6,2,4
20,6,-1,-14,-9,-6,-2,2
-5,-5,-16,-9,4,-1,-1,-4
3,-8,-8,-5,-1,0,2,1
5,-19,-17,-13,-7,-2,-4,-1
1,33,15,6,-4,-8,-1,2
2,2,-8,-8,-1,-1,0,-5
-9,4,15,10,2,-1,0,-2
4,-5,-33,-19,-10,-5,-5,0
7,3,12,11,1,-2,-2,-1
-11,4,-3,-5,-4,-3,-3,-3
-4,0,4,4,4,2,-2,1
8,4,-6,-5,1,-1,-3,-2
7,-2,2,4,2,-1,-3,-2
-14,-2,3,-2,-1,0,-2,-3
15,-9,-6,-5,-2,-3,-4,-1
29,24,4,-5,-8,-3,-2,1
-11,-3,10,5,0,2,-1,-6
7,6,-13,-7,4,2,-1,-1
-9,1,5,2,-2,-1,1,0
-4,-13,-21,-11,-4,-3,-2,0
-19,-12,-6,-7,-2,-1,0,0
12,3,-4,-1,-5,-3,1,-1
-10,8,17,11,5,2,1,0
9,-3,-13,-6,-1,0,0,1
19,16,13,-1,-1,-2,-1,1
2,1,-3,-8,-2,1,0,1
-7,-14,-9,-8,-2,-2,-3,-2
5,-1,-7,-4,-5,-4,-4,0
-1,-2,-5,1,-1,-1,-2,-1
-10,-10,-4,-2,-2,-1,1,-2
10,10,5,2,-1,-1,0,0
-2,-2,-8,-7,-4,-2,-1,0
0,-23,-24,-11,-2,-3,0,1
-7,31,-15,-11,-5,-3,-2,-2
-4,-8,55,48,14,6,4,7
7,-19,-6,-16,-7,-1,-2,-4
5,-1,5,5,12,4,2,0
-3,-10,-19,-9,-5,-5,-2,-3
31,44,-12,2,0,0,1,4
-36,-38,-1,-20,-5,-3,0,1
35,54,18,21,6,4,1,4
-31,-54,1,1,-3,-1,-2,-5
24,-8,-21,-13,-7,-1,-3,-1
1,17,21,7,0,0,-1,-2
-15,-32,-31,-6,-3,0,-1,1
13,62,32,5,3,2,0,3
-24,-45,-6,-13,-6,-4,-5,-7
12,40,-1,17,6,3,3,3
-31,-27,3,-2,-3,-1,-3,-5
28,29,17,0,-2,0,0,3
-51,-52,-27,-15,-5,-4,-4,-11
13,31,19,1,0,2,1,1
2,-7,-8,6,4,0,2,4
-10,9,13,7,3,1,0,-2
3,29,-4,0,0,2,4,4
-70,-59,6,-1,0,1,0,-4
23,40,22,12,-4,-5,-4,0
47,36,-36,-16,-8,-7,-7,-1
2,24,46,9,6,5,4,6
42,-30,-39,8,7,4,4,13
-48,15,16,-16,-13,-9,-8,-13
23,-25,-20,3,3,0,-5,-5
-14,4,-31,-11,-4,-1,-4,-10
23,74,36,27,4,-1,-2,3
11,-64,-19,-23,-7,-4,-3,-5
-18,-3,10,8,1,0,4,4
-11,-32,-10,-3,0,3,5,4
-13,14,15,-8,-5,-4,-5,-9
3,36,13,11,5,4,6,7
-36,-96,-37,-9,-6,-4,-7,-7
10,-6,-18,-15,-10,-10,-10,-9
7,13,-41,-6,-2,0,-1,0
14,37,38,8,1,-2,-3,0
-11,1,-3,0,2,5,6,3
0,-50,-7,-1,-2,0,1,-1
-3,18,-5,-3,-1,-3,-2,-4
12,72,33,8,3,2,4,5
-5,57,34,4,-4,-2,1,-2
7,109,13,-3,-2,-3,-4,-2
-10,-13,-15,-6,-4,-4,-3,-8
0,-27,13,-4,0,4,2,1
5,-2,18,9,2,3,2,2
-1,16,-12,-6,-7,-3,-3,0
-6,-8,13,-3,-2,-1,0,-3
-14,-74,-39,-6,-3,-3,-3,-5
-4,-6,1,2,2,1,0,-1
-5,-15,-8,-1,1,1,2,1
5,-33,-4,-4,-1,-1,-2,-1
2,25,8,0,-4,-4,-5,-1
-8,6,8,-3,-4,0,-1,-1
4,-14,3,8,2,2,1,4
5,4,7,-6,-8,-18,-3,-4
-2,-8,-14,-3,-12,7,-5,-4
-3,-1,-5,-1,11,13,11,4
2,-5,9,4,7,-1,1,0
-4,-9,-9,1,10,16,1,2
-7,-19,-16,0,0,-5,1,0
0,-10,-7,-6,-19,-17,-10,-2
1,8,3,-7,-22,-2,-2,1
-8,-12,3,5,11,-4,0,-3
-21,-13,-4,4,20,5,5,3
13,7,-12,0,5,4,0,1
-13,3,20,7,4,-3,0,-4
-4,13,0,8,-11,-6,-4,-1
-4,-11,-12,-14,-4,3,0,-2
-31,-24,-7,9,5,-2,4,2
6,7,-1,-4,2,4,0,1
-39,-14,-5,-9,-10,3,-1,-2
37,-16,1,-3,-3,-6,3,3
-47,2,8,8,6,5,-2,-7
10,7,-5,-4,-3,-3,-1,2
-17,-25,0,1,3,6,1,-1
28,21,-12,-4,-4,-4,0,3
37,-20,-36,-28,-9,-3,-3,1
60,69,61,28,8,5,1,6
-28,-37,-1,10,4,-2,-2,-8
-3,-4,-4,0,2,1,-1,-1
25,-5,0,-2,-5,-3,-1,3
-24,-18,-34,-14,-2,-3,-1,-4
-48,-13,-9,-13,-6,-2,-2,-2
9,-3,-6,2,-8,-5,-3,-1
29,12,-12,-11,-2,-3,-4,-4
-2,7,28,16,6,0,-2,-2
2,-25,3,-9,-5,-6,-2,-1
-49,-11,-8,3,1,0,0,-4
-8,-2,-7,-8,-2,-2,0,-1
-93,-28,-22,-13,-5,-4,-4,-10
60,61,20,8,-3,-2,-1,6
14,-28,-19,-14,-4,-3,-2,-4
7,22,25,16,-1,-3,-5,-6
-51,-52,-21,-6,0,-3,-5,-10
28,33,24,10,4,3,3,7
2,-46,-24,-12,-4,-3,-4,-3
-8,81,20,5,0,-2,-1,4
28,-37,-18,0,0,2,3,3
21,-10,-21,-16,-7,-6,-5,-5
-2,33,16,10,3,1,-1,-2
-21,25,8,0,-2,-1,-1,-5
-4,-87,-45,-14,-3,-2,-2,-3
69,99,4,-6,-5,-3,0,7
-20,63,20,6,-3,-2,-3,-4
-7,-8,3,0,-1,-2,-2,-1
5,20,-1,-7,-6,-2,1,-1
22,-42,-9,3,2,3,0,-1
-8,5,15,9,7,2,3,4
9,-35,-4,-1,1,0,2,2
12,35,18,4,1,0,1,3
6,48,4,-6,-5,-5,-3,-5
12,-7,-22,-4,-2,-1,-1,1
-5,-5,6,0,-1,0,0,-2
12,-13,-1,-1,-4,-3,-2,1
-32,-11,1,4,1,0,0,-3
-25,-17,6,2,0,0,-1,-2
-5,-96,-32,-3,-2,0,2,3
8,41,22,-4,-4,-3,-3,-1
-7,12,-16,4,4,3,2,2
28,6,7,-7,-2,-2,-2,-4
-9,-18,-1,3,-1,1,1,1
7,25,6,1,2,-1,1,2
22,-16,-6,-3,-3,-4,-3,-4
-19,-7,-1,0,1,1,0,1
6,4,5,-3,-1,0,-1,-1
32,12,-14,0,0,0,1,5
-25,-3,6,-5,-3,-1,1,-7
14,-11,5,4,1,1,2,8
9,58,13,-1,-3,-3,-4,-5
4,-17,-29,-4,0,0,0,-1
-74,-36,-3,1,1,2,1,1
27,3,6,5,1,-1,0,0
-12,-9,5,-2,0,1,0,0
9,18,4,-3,0,1,-1,-1
-5,-34,-7,0,-2,0,0,-2
-26,6,-3,-3,-4,-4,-1,-4
1,8,4,11,2,-2,-2,-2
1,-7,-1,0,0,1,0,4
-1,-81,-22,-8,-3,-3,-1,0
-7,28,11,-11,-5,-3,-3,-3
-29,-6,-10,9,3,-1,-2,-7
-51,34,22,10,3,0,-1,-1
36,58,18,4,4,2,1,7
16,-21,-17,-5,-2,-2,-1,-3
-31,-22,-7,-3,-2,-1,2,2
31,12,-3,-3,-4,0,-3,-3
27,33,-1,1,2,0,-2,1
-28,-8,-9,-4,-1,0,1,-2
6,-3,0,-11,-4,-2,-1,-1
6,15,5,-6,-2,-2,-2,-1
-4,-59,-14,8,0,-1,-1,-3
32,-27,4,0,0,-1,1,0
10,14,-6,-2,0,0,-1,0
-12,14,-6,-12,-7,-4,-4,-9
-8,3,-3,-2,-1,-1,-2,-1
-3,22,8,10,4,0,2,3
-16,-27,-18,-13,-5,-2,0,0
8,3,16,24,5,0,2,0
30,52,10,-5,1,1,-1,1
-53,4,-5,0,-2,-2,-4,-7
9,-30,2,-7,0,1,1,0
-3,-8,5,3,2,0,0,3
-5,-6,-9,-9,-4,-1,0,1
0,-37,-16,-4,-6,-3,-4,-5
5,7,-6,-3,-2,-1,1,1
-2,-21,-8,-6,-2,-1,-2,-8
-15,0,7,12,3,2,1,-3
7,-19,-12,-14,-1,1,3,2
4,46,33,21,5,1,-1,0
4,-37,0,-6,-3,-3,-3,-1
17,34,21,18,6,3,1,-1
-1,-27,0,5,0,-2,-3,-2
13,0,-12,-7,-2,1,1,4
-20,18,0,-7,-4,-1,2,3
-2,2,5,-2,-2,-3,-2,-4
6,51,-21,-2,0,2,2,4
-6,16,39,9,-4,-5,-6,-6
16,23,-2,2,0,0,-1,0
-24,-30,-15,-9,-3,-3,-2,-6
9,4,5,8,5,4,3,2
-3,-6,-13,-7,-2,-1,0,1
4,-1,-5,-4,-5,-2,-3,-4
1,-17,-4,-5,-8,-4,-4,1
6,17,11,1,-2,-10,-2,1
3,-34,-12,-6,-14,-4,-1,0
-7,-5,0,3,18,6,-11,45
6,-6,-6,-6,-4,1,12,-5
5,-5,3,-3,-7,-13,-3,-30
2,-11,-8,0,6,17,2,-7
9,-13,-2,2,-4,-16,1,25
1,7,-1,-4,-5,-3,-7,6
-13,1,5,2,1,-2,1,0
18,8,-5,-1,-3,-7,-9,8
-5,-3,-2,-4,-2,5,0,-26
-6,-6,-4,-6,-3,1,-3,3
-8,-8,4,0,-8,-7,1,-2
46,-8,-6,0,5,-1,2,20
-30,-9,-3,1,2,6,10,1
-25,-28,-3,-3,3,-2,1,-2
54,21,-2,-2,-2,4,-11,-6
-11,-13,-7,-6,-12,-6,10,3
2,-4,3,6,14,4,16,-10
48,14,-6,-3,2,-1,-6,-2
10,-17,-3,-4,5,8,9,19
-69,-1,-3,-2,-1,-7,-8,-22
17,-1,10,-2,-8,-4,-7,-16
-48,-12,4,6,-1,4,4,-2
30,27,0,-3,-6,-2,-9,-3
26,3,-4,-6,10,4,3,1
10,18,-15,-1,-6,-1,-4,-5
-20,-13,6,-8,1,2,-1,3
12,26,24,31,5,3,4,5
-5,0,7,12,7,1,-4,-3
30,-3,-52,-19,-11,-5,-2,3
-17,-26,-75,-62,-28,-17,-12,-14
37,6,3,-67,-15,2,2,8
42,92,-9,51,13,-1,0,0
26,-73,98,95,35,18,6,11
31,116,105,104,46,20,16,17
-36,-82,-50,-23,-10,-4,-4,-1
9,-19,-75,-41,-20,-11,-9,-5
-17,18,-46,-58,-23,-11,-4,-9
50,-10,-43,-51,-22,-13,-5,5
-4,86,-24,8,-1,-2,-3,0
-30,1,51,10,0,-3,-3,-6
-32,-38,-59,1,-7,-9,-8,-10
4,76,64,51,21,17,12,11
-7,72,87,60,32,9,-2,-2
-16,-73,-4,-14,-4,-2,-4,-10
-9,33,11,-33,-25,-21,-21,-20
0,-18,-86,-29,-8,-6,-6,-4
-9,8,16,35,4,3,5,4
-9,-8,-70,-36,-13,-8,-6,-6
-7,43,59,10,6,6,6,5
5,-5,-12,24,1,-6,-7,-10
-41,-44,17,7,3,3,5,1
30,13,11,-5,0,-2,-2,2
20,43,-17,-26,-9,-3,-3,-2
-25,-65,-45,-11,-4,-3,-4,-7
-38,-106,-24,-16,-12,-12,-10,-10
26,15,15,19,10,9,10,14
8,49,33,6,2,2,0,0
-21,-41,-12,-9,4,5,6,2
6,57,24,1,-1,2,2,0
-13,-22,12,-2,0,2,2,3
-7,-18,9,-2,-2,-3,-1,-4
4,21,49,1,1,2,2,1
12,35,-25,-12,-2,3,1,-2
-21,-7,-9,-1,-4,0,1,-3
0,52,-1,11,12,12,10,10
-20,-71,-40,-21,-12,-10,-10,-14
10,17,16,17,1,-2,-3,1
-5,108,31,-1,0,2,2,5
-33,-128,-66,-6,-4,-1,-23,6
-5,38,7,-15,-7,1,35,-31
-5,-50,-37,-11,-2,1,-11,-24
-26,-27,-3,4,2,2,8,-11
18,20,13,11,7,3,-13,22
3,14,17,-2,-5,-14,-82,67
-11,-16,-17,-18,-18,-12,44,-49
1,-9,15,8,-11,-16,-10,12
-14,10,-6,-10,-18,23,29,-63
6,-2,9,1,8,-9,-59,-3
3,4,-15,-6,-7,-20,65,91
7,1,4,0,30,30,12,-53
0,-27,-13,-5,-15,-21,-17,20
1,9,7,19,79,81,7,-20
-7,-13,-6,-17,-41,-59,-40,42
-10,-15,-8,-9,-10,9,44,0
6,10,9,13,2,-22,10,-28
-12,-3,5,3,16,17,15,-1
23,17,-4,-9,-23,-18,-40,8
26,-28,0,0,11,53,18,34
-30,27,-4,-5,1,-12,-19,-54
-10,4,1,-4,-17,-8,25,-17
-21,-22,-6,1,8,-6,-20,-8
10,18,-2,-3,-19,-26,-27,15
-2,-17,2,-1,4,4,10,32
23,0,-6,-7,-19,-15,17,-5
-4,18,-12,-11,-3,5,-6,-14
-64,-7,5,0,-9,-23,-12,-10
10,-5,3,14,18,17,3,-4
-2,-28,-49,-32,-28,-30,7,0
7,30,77,37,27,32,6,-6
-34,-35,-18,-11,3,-4,-10,0
71,-4,-40,-18,1,3,8,23
-5,-7,-46,-32,-29,-19,-4,-4
19,44,72,55,38,31,3,-12
8,-34,-13,4,10,-1,-5,-5
18,-3,47,20,-5,-5,5,29
-49,-44,-54,-51,-35,-18,6,-1
-20,-23,-1,-19,16,17,-5,-16
-23,2,27,6,4,-9,-3,3
-32,-46,-16,-6,-8,-5,-3,2
33,46,-18,-4,-5,-5,2,7
-30,-1,51,34,9,4,-3,-9
1,-14,1,-10,-9,-8,-9,1
-11,16,-13,-11,-4,-5,-4,-1
-2,4,20,-10,-6,-6,-2,-6
-8,-24,-41,-28,-11,-5,-3,-6
43,66,-54,-27,-8,-9,-5,5
-23,-64,48,-4,2,4,0,-1
14,6,42,60,15,-6,-5,-4
-15,44,-65,-25,-6,1,-3,-7
-4,-8,24,14,4,-5,-7,-9
-1,-3,-53,-32,-8,-4,0,1
-9,22,54,23,3,-1,0,0
-4,-13,70,-4,3,9,5,2
37,65,-88,5,2,0,5,8
2,3,7,6,2,-1,-1,2
20,53,63,20,5,4,9,13
-30,-90,-105,-31,-13,-6,-7,-19
-5,-22,9,9,8,10,8,9
36,127,101,34,7,2,-3,0
1,41,6,-4,-2,-3,-1,0
29,-34,-55,-19,-10,0,2,10
-30,-37,35,17,4,1,-6,-17
-18,8,-20,-8,0,3,1,1
24,25,11,7,0,2,3,4
6,-58,-63,-3,3,6,5,2
-8,-42,1,-28,-18,-17,-13,-13
-13,-17,-32,-4,1,2,2,-1
15,8,-7,11,2,-1,1,-2
6,78,9,6,7,6,4,2
10,-38,-61,-4,-1,1,4,9
54,42,38,10,3,-2,0,8
-38,-39,-12,5,0,-1,-2,-11
20,54,30,10,4,4,3,2
35,56,18,6,-4,-5,-17,23
-21,82,-17,-16,-3,-3,6,-27
-13,-44,-3,-1,0,3,4,18
12,-19,-3,-6,-5,-1,16,-7
-16,2,33,4,8,4,-3,7
-23,-71,-8,-2,-6,-5,-12,7
2,20,-30,0,0,0,-2,35
7,-40,51,-2,-7,-14,-87,-11
-16,-33,-18,-6,-7,-1,83,7
-23,-21,-22,8,20,32,36,-2
-23,-46,-22,-4,1,0,-17,-54
-2,-15,16,-3,-32,-35,-19,8
5,3,13,-16,-81,-77,-108,-10
-13,-48,-14,-6,5,14,54,81
8,-13,14,11,50,34,92,-29
-16,13,-6,29,95,91,17,-28
21,55,40,16,60,30,-24,-109
34,16,-28,-17,-29,-22,62,57
7,0,-4,-22,-76,-84,-89,83
-18,14,-8,-1,7,47,3,-15
0,-1,-3,-13,-61,-82,13,90
-47,-41,-7,0,-8,-51,-64,-123
-11,0,9,3,25,5,-7,-44
66,6,-9,0,23,59,57,52
-44,-42,3,-4,-9,36,-22,-8
30,11,-3,4,2,-29,11,39
23,28,6,-18,-40,-22,-32,-9
-15,-3,-18,-13,-56,-103,-27,-20
22,15,0,3,15,46,24,22
0,2,1,3,13,3,-26,-20
-36,-24,-10,-5,-3,-3,16,-23
-25,7,-1,1,4,6,12,26
14,0,9,9,30,31,20,11
-17,-5,-1,-10,-31,5,-16,-2
12,-7,7,6,24,19,9,14
13,-1,-2,4,26,16,16,-6
-12,8,4,0,5,0,4,-16
16,12,-9,0,0,4,-28,-7
-21,-6,-2,0,5,5,8,27
-10,0,-5,-11,-33,-41,-4,-8
5,-6,1,5,21,14,0,-17
-3,5,0,-1,3,6,-9,2
40,7,1,-4,-7,-2,3,2
-50,-23,-6,-2,-8,-14,-4,-19
-10,-7,-1,0,7,3,-1,-4
29,3,0,0,0,3,-6,9
3,13,5,-1,-1,4,3,-8
-2,-7,-4,-1,-4,-1,-7,1
2,-1,-10,-4,-4,-6,2,10
-55,-43,-4,-4,-1,-4,-7,-14
37,29,14,19,12,14,1,-2
5,14,6,3,-6,-9,1,9
-1,-36,-25,-10,-8,-13,0,-1
-2,21,-3,-21,4,5,-4,-7
6,-10,-7,19,11,10,3,3
15,17,1,-40,-23,-17,-5,7
-3,-38,-22,-20,-8,-7,-2,-10
24,26,76,56,36,26,6,10
-32,12,26,19,1,1,-3,-1
-12,-82,-86,-75,-39,-23,-7,-12
-47,96,94,13,23,13,3,-10
90,32,-26,31,27,11,2,14
-16,28,-11,-55,-10,-3,-1,-5
-41,-64,-43,22,6,-2,0,-4
31,40,-128,-93,-40,-19,-8,-5
-10,-20,1,-7,-3,4,2,2
-5,35,33,37,19,10,2,-3
11,17,75,67,14,8,6,9
10,55,37,26,5,-5,-9,-15
8,-23,-12,29,19,10,7,8
8,-74,-76,-44,-21,-9,-6,-6
-8,5,-91,-33,-11,-9,-4,-4
-14,15,62,-90,-21,-9,-7,0
-40,-63,-56,27,7,0,-6,-13
38,-1,18,41,10,3,-2,4
-14,36,42,10,7,-1,-4,-3
28,99,-27,1,3,0,3,7
-33,-36,-106,-90,-36,-16,-12,-14
-14,-41,22,-4,-3,0,-1,-1
-3,-29,-15,7,8,3,4,2
22,-39,35,37,6,0,2,7
-16,-2,30,4,-5,0,-3,-3
-16,0,4,-1,-3,-1,0,-6
44,127,74,18,15,10,7,13
-44,-103,-40,6,3,0,-1,-10
40,117,93,16,-8,-9,-9,2
-23,-58,-57,-33,-17,-9,-6,-8
-1,-6,-3,-13,-1,3,1,-3
15,-26,-7,25,9,4,5,11
-24,34,9,-2,0,3,3,-5
17,74,11,-15,-7,-5,-2,-1
19,71,41,11,8,7,6,7
-32,-128,15,12,-5,-8,-7,-11
-7,79,-43,-29,-12,-6,-3,-4
-10,0,-18,-12,-1,1,0,-4
-9,-78,-46,-8,-4,-2,1,1
12,53,23,25,13,7,8,9
-14,-80,-35,-9,2,5,6,11
-9,45,63,-7,-10,-10,-7,-18
12,1,-4,-5,-5,-6,-12,15
12,-13,-5,9,3,1,-27,18
-11,-54,-7,-7,-2,-1,32,-72
1,-51,-38,7,10,11,2,30
17,36,28,20,5,2,17,-4
16,62,-3,2,-2,0,-11,16
11,57,6,-7,0,0,-20,18
-13,28,4,-2,-3,-5,-18,-7
-4,-19,-11,-8,-2,-2,27,39
-2,-31,-26,8,8,13,26,34
-11,-41,6,2,-2,-1,10,-31
21,27,15,6,4,2,-9,15
-5,-28,-2,-13,-26,-32,-47,11
-4,1,-21,-5,-38,-12,-7,21
-21,-21,6,2,-1,-7,42,-29
15,-7,0,23,100,103,24,-11
-4,-7,-9,1,16,2,26,22
-8,-15,8,2,-1,-16,-20,-22
-13,19,-2,-18,-46,-31,-58,-35
-12,-14,-17,-10,-41,-57,41,26
13,11,5,1,9,29,-13,-48
-4,-15,1,16,45,47,39,50
27,24,7,-5,-13,-15,-20,31
-42,-2,-11,-5,-18,2,-36,7
12,-15,-7,-15,-27,-39,14,-40
-50,-21,-4,2,-1,-24,10,2
-22,-29,8,19,69,49,10,5
9,-20,-3,-6,-18,-37,-8,1
14,8,-6,-7,-10,4,-2,11
10,9,-6,-4,-12,-10,-10,-41
14,-6,-1,-5,-17,-23,-11,32
-6,-7,-6,1,-3,9,12,-14
-15,-14,-1,-1,-4,-7,-17,-8
23,25,-4,0,5,5,3,-14
-4,-7,-1,-6,-12,-8,0,10
4,-10,-3,-4,-9,-8,-2,3
-12,11,-4,-1,9,18,-1,-14
-23,-6,3,3,6,3,-3,-13
-20,-12,-6,-4,-4,4,3,17
3,-6,3,3,-5,-3,-4,-17
4,-7,-2,-1,8,4,-2,5
7,6,-2,-3,-8,-3,5,-11
-12,-3,-2,-4,-6,-5,-4,5
7,-12,-6,-1,2,-3,3,-3
-26,-15,1,0,-3,0,-6,-6
21,21,-2,-2,-2,-3,-2,-1
-10,-1,0,-2,0,1,0,0
1,3,-1,-3,-2,0,-3,-2
2,-6,-2,1,2,-2,-2,0
3,0,0,0,-2,-3,-1,-12
14,7,0,0,0,2,-3,7
3,0,-6,-3,-6,-2,0,-6
1,-2,-4,-1,-1,-3,-5,-2
1,3,2,0,2,-1,0,-7
2,0,3,5,4,3,-2,2
-34,-14,-8,-6,-3,-3,-2,-3
-4,-23,5,-5,-1,0,-3,-1
15,29,-2,-1,1,1,-3,-6
-19,-3,8,5,-1,2,-1,0
-3,-6,-6,-4,-1,-1,-1,-1
-5,-1,-3,-4,0,1,0,0
-5,-8,-16,-11,-6,-3,-1,-3
28,5,8,-7,-1,0,-2,4
3,16,18,27,7,-2,-4,-6
12,5,0,-1,-2,-1,-2,-5
0,-9,0,0,2,-1,-1,0
-11,-12,-21,-12,-5,-1,0,-1
6,-3,-1,-3,-3,-3,0,1
11,18,3,3,0,1,0,1
-47,-12,-8,-2,-4,-2,-2,-6
-24,-21,-18,-11,-5,-1,-1,0
45,46,15,-5,-1,1,2,4
-86,-5,21,10,4,-1,-2,-9
15,-9,5,4,2,3,1,-1
-3,4,-13,-2,-1,-1,0,2
-3,-31,-35,-33,-10,-3,-1,-3
-4,32,11,28,10,6,3,4
12,-22,28,-8,-4,-1,-1,-4
17,32,2,7,-1,-4,-3,0
-14,-13,9,20,3,1,-1,-3
19,1,-28,-26,-6,-3,0,3
0,-16,-24,-14,-6,-5,-1,-2
13,50,26,29,7,4,0,2
-14,-82,2,17,7,2,-1,-2
19,-6,-46,-63,-31,-14,-7,-2
2,5,-56,-41,-9,-3,-1,-1
13,49,84,73,43,17,5,5
24,41,49,12,8,3,0,-6
2,-49,-10,30,10,0,-1,1
-12,-34,-93,-63,-27,-12,-7,-7
-4,-31,-125,-128,-64,-20,-1,-4
19,91,84,85,72,27,7,10
31,-29,11,-20,7,2,-1,-2
-18,-2,18,-5,3,1,-1,-4
-10,14,-29,-30,-12,-10,-8,-1
-16,15,-128,-93,-46,-12,1,3
9,7,113,100,64,27,8,5
-24,-21,-63,35,13,-2,-4,-3
10,-33,33,-13,-6,-2,-3,-2
-32,-1,-37,-19,-16,-8,-4,-6
2,92,41,-8,-6,1,2,2
12,17,41,22,1,1,0,0
1,-79,10,22,2,-4,-4,-2
-2,11,-45,-42,-21,-8,-5,-3
-31,-85,-59,-13,-7,-1,3,1
-14,-30,74,18,2,-2,-4,-8
9,-10,-46,-24,-12,-6,-7,-5
26,64,78,35,8,1,1,4
-43,-119,-86,-34,-16,-4,-3,-8
41,109,88,22,6,5,6,14
23,60,77,64,17,3,1,4
-3,-106,-83,-16,-7,-3,-1,-4
13,81,3,-12,-7,0,2,3
-3,14,31,2,-3,-1,-2,-6
-5,-12,3,-3,8,7,4,0
14,26,-2,0,-1,2,3,2
9,-31,-15,-17,-13,-6,1,2
20,88,10,7,7,6,4,8
-17,-111,-55,-11,4,4,3,-3
-11,-15,13,-13,-13,-9,-6,-4
4,47,-7,-9,-5,-3,-3,0
1,-2,-21,1,2,3,1,1
-13,-9,7,13,5,5,2,4
17,17,24,-5,-1,0,7,47
-4,-40,12,1,-7,-7,-19,-61
-15,-65,-8,-3,-3,-5,-15,-26
8,32,-13,-9,-6,-3,32,73
-28,-13,16,-5,-30,-28,-37,-68
-11,14,-15,-8,-31,4,-55,41
9,-2,-2,9,22,-2,104,-4
4,9,10,-7,-23,8,-79,1
-28,-39,-16,4,45,2,13,-10
31,43,23,19,30,41,77,-5
-12,-69,-24,-4,6,36,-69,-48
-37,4,-5,-3,-12,-48,31,38
3,-16,5,11,41,14,-20,101
17,10,-9,-5,-2,14,-13,-30
-2,2,1,-5,-28,-45,-9,18
3,4,-4,-4,-12,-5,-7,-44
-34,-24,-1,-9,-26,7,-20,-27
4,8,6,6,23,-14,17,-2
-17,-7,-5,3,6,9,10,9
44,9,9,8,16,15,-11,-9
-4,-2,0,-11,-44,-33,-1,-21
7,1,-6,7,18,2,37,65
-41,-20,-4,2,16,19,-14,2
1,12,-1,1,19,24,4,-19
6,-1,4,1,4,10,21,-6
-6,1,-6,-11,-22,-20,-15,8
-4,-4,-9,-5,-12,-16,-19,6
-23,-8,-1,-1,4,1,13,-20
25,23,1,2,-3,6,12,-2
-26,-24,-2,-1,-6,-17,-21,-6
58,29,-5,-6,0,-1,1,10
27,18,2,2,3,-2,6,-4
-35,-16,-12,-11,-7,5,-3,-4
-5,-1,-16,-16,-8,-12,-13,-7
-14,-8,11,4,6,6,10,6
-21,10,7,5,4,2,1,-4
5,-4,-1,-1,3,-4,-3,-7
-22,-12,-9,-13,-8,-3,-1,-6
0,-5,-21,-8,-7,-9,0,5
2,2,-8,-3,-3,-2,-5,-2
13,0,7,0,4,1,5,-3
13,7,-21,-3,-8,-11,-4,-6
27,4,7,0,-5,0,-6,9
-6,3,15,10,8,0,0,-6
20,8,-2,7,2,0,3,-2
-28,-6,-16,-17,-9,-7,-6,-3
2,4,-32,-28,-8,-7,-7,1
15,-2,59,36,16,6,5,-4
-11,-11,-5,-8,-1,-1,2,-2
31,13,6,-2,-3,-3,-7,-2
-10,-13,-20,-3,-3,0,0,-1
7,4,-17,-17,-8,-3,0,1
-17,-9,-5,1,-4,0,-2,-3
6,6,13,14,1,2,-1,1
17,3,2,-7,-3,0,-1,0
-4,-8,-12,-2,-2,0,1,1
-10,8,10,6,1,0,-2,-2
16,16,0,-4,-1,0,0,-2
-33,-19,7,10,3,-1,0,-1
5,-10,-8,-10,-6,-2,-3,-1
0,16,-2,-1,-1,0,4,1
-26,-5,4,4,-1,-1,-1,-5
4,2,12,11,2,2,-1,3
-11,-5,-7,-2,-1,-1,-1,-3
6,0,-4,-10,-2,1,1,-2
14,0,4,7,5,0,-4,-1
-19,4,12,6,1,0,-1,1
0,16,-15,-10,-4,-2,-2,-5
17,-26,-3,0,-1,-1,1,2
1,3,12,6,1,0,-2,1
-8,-17,-6,-5,-2,-2,-1,0
8,4,-8,-9,-5,-4,-3,-4
27,15,1,16,7,2,1,2
-54,-77,-14,-5,-1,1,-1,-1
-37,37,20,-3,-3,-2,-2,-8
43,13,-16,-2,-7,-3,-2,3
12,20,2,-15,-4,-3,-3,0
-26,14,10,18,6,4,3,3
2,-29,-4,0,1,3,0,2
-25,-11,1,3,3,1,2,0
13,30,9,2,-2,0,1,0
-14,-1,-11,-10,-4,-4,-2,-1
-11,-28,0,-1,1,3,3,1
-2,41,3,-5,-1,-3,-2,-5
-18,-19,-4,0,-1,-1,-2,-1
14,13,5,-9,-3,1,1,1
28,1,-3,6,0,-1,1,2
-20,-21,-8,-6,-3,-1,0,-1
-10,-2,12,19,5,2,-1,-4
20,0,0,-5,-4,-2,0,1
48,47,12,6,0,-3,-2,1
-5,-18,-6,-2,0,1,0,-1
-11,-18,-12,-7,-2,-3,-2,-1
11,1,0,-1,-2,0,-1,-2
-3,22,-4,-2,-1,-3,1,-1
8,1,4,6,1,0,-1,0
0,-6,-1,0,0,0,0,0
7,-6,-1,1,-1,0,-1,1
-18,-8,-8,-6,-5,-2,-2,-3
-17,-8,2,2,1,-1,-2,-3
-6,-6,-9,-7,-3,-1,-2,0
22,-1,-2,2,0,-3,-2,-3
14,10,0,3,0,-1,-4,-2
-8,-19,-4,-1,-1,-1,0,2
-9,33,3,-4,-4,-2,0,-2
3,-8,-7,-1,-2,-2,-2,1
-3,-6,-4,-1,0,-2,-4,-5
28,12,2,-2,-1,-1,-1,2
-10,-17,-5,-2,-1,-2,-3,-3
-3,18,5,0,0,0,-1,0
20,21,2,0,-3,-1,0,1
-28,-25,-20,-10,-2,-1,0,-1
4,-16,6,-11,-3,0,2,-1
-2,34,22,26,7,0,-3,-4
-2,20,1,3,2,1,3,3
-15,-6,2,-3,-1,-1,-1,-7
0,-18,-12,-7,-3,-2,-2,-2
5,-3,-9,-10,-3,-3,0,1
-14,-13,-6,1,0,1,0,1
20,17,8,6,1,-2,-1,1
-35,-7,-7,-7,-5,-4,-4,-5
-9,7,3,3,2,1,1,-2
8,-5,2,3,1,0,1,0
-20,-31,-6,-1,-1,-1,-1,2
25,15,11,10,4,1,-1,-2
-4,-3,-1,-4,-1,-1,1,1
-4,-12,-3,-4,-2,-3,0,-1
4,-4,0,-1,-1,1,2,1
18,39,9,1,-1,-1,0,3
1,-30,-12,-5,-2,-3,-2,-5
10,-6,-1,-4,-2,0,-1,2
-30,-3,4,1,-2,-1,-2,-7
16,1,-1,3,1,2,-4,4
38,31,-3,-5,-1,-1,1,4
-45,-39,-5,-2,-2,-11,-1,-4
-1,1,1,1,0,1,1,-3
-7,-14,-3,1,0,8,1,-3
-6,-4,2,-3,0,-5,-6,-1
7,4,1,0,0,-2,-3,-1
7,15,4,1,0,8,15,4
-2,-6,-6,-2,-1,-2,-1,0
-5,-7,1,-2,-2,2,0,-1
5,3,-1,2,0,0,-3,-3
-6,5,0,-1,1,-1,-7,-4
10,2,-3,1,-1,-2,1,4
-12,-13,-8,-3,-3,1,1,2
10,-1,-1,-4,-1,-1,-2,-1
2,-2,-3,-3,-1,-4,-4,0
-11,-14,-1,-1,-1,0,3,-4
-2,11,0,-1,-3,-2,-2,10
3,-5,-2,-1,-2,2,-2,0
4,14,0,-1,-1,0,1,-1
-22,-34,-2,1,1,-3,-6,-8
-41,-17,-4,-1,0,16,-9,-2
13,12,1,-3,-5,-24,1,-2
5,0,1,1,1,4,16,8
15,14,-1,-1,0,-9,12,12
-14,-16,0,-2,-3,2,2,-7
-10,-13,-3,-1,3,11,-5,-2
2,5,1,-1,-3,-7,-13,-7
-3,-8,-2,0,0,3,-3,-4
6,9,2,1,2,2,-12,-6
5,5,-3,-2,-5,-5,-4,-3
4,3,0,0,-3,-7,5,6
3,7,-2,0,1,6,9,-2
1,-18,-1,1,-1,-3,4,2
6,30,-1,-2,-3,2,-5,3
-13,-10,-2,0,-1,-7,-6,-5
-8,-1,-3,-4,-3,3,-6,-12
21,12,2,-1,0,-7,0,-2
-20,-21,-1,2,-1,5,6,2
32,20,-3,-3,-2,3,-7,14
3,10,0,0,-3,-13,-21,-19
3,-1,-2,0,0,-1,30,5
1,-5,-3,-2,-1,4,1,-6
-7,-1,1,0,-1,4,-2,3
-4,-9,0,0,0,-3,-5,4
5,1,0,0,-2,-2,-4,-4
-12,-9,2,0,1,0,1,1
7,-1,0,0,1,-1,-4,-3
10,0,-1,-2,-1,1,3,2
-4,3,0,-2,-1,1,-3,-5
-4,8,0,-2,-1,22,1,-1
-17,-30,-5,-3,-2,-24,-11,-9
0,19,2,1,-1,-8,10,7
21,11,2,2,0,-5,4,12
-4,0,-2,-4,-5,-8,-4,5
-5,-10,-1,-1,0,13,2,-5
-4,11,-3,-5,-1,8,-4,3
-6,-8,-1,-1,-2,-12,-12,-10
6,-1,0,3,2,12,13,8
-5,0,-3,-1,0,7,5,-5
-1,-6,-2,-2,-4,-4,-1,0
-2,2,1,0,-2,2,-4,2
6,-5,-1,-1,0,-9,-6,-5
-10,5,-1,-2,-3,-3,-3,-2
-22,-17,-3,2,1,2,-6,-4
29,20,0,-2,0,1,3,26
-1,-18,-2,-2,-1,-4,0,-7
-1,-15,2,0,-1,-3,2,-2
5,20,1,0,-1,-2,1,3
-2,-6,-6,-4,-2,-2,-7,-4
0,-2,-2,0,-2,-2,-1,4
0,-1,-2,-3,-1,-1,1,-1
4,-6,0,-1,0,6,5,17
-17,-9,5,2,0,-2,-3,-24
5,40,1,2,1,-4,-2,-5
-6,-40,-20,-11,-7,-6,-4,-5
2,0,2,1,-2,-5,-5,1
-14,-20,-7,-3,-3,0,1,-4
2,6,6,1,2,-2,4,-3
2,13,4,3,1,-4,-2,4
-1,-5,-3,-2,0,1,3,-4
-6,-1,2,1,0,3,-1,-1
1,-13,-2,-3,-2,-2,-6,-4
2,14,2,0,-1,3,1,3
5,-15,-4,-3,-2,0,0,-3
1,14,-1,2,-1,-1,0,-3
2,2,2,0,-2,-6,-4,2
8,5,1,1,-1,6,3,-2
-7,-1,0,-1,1,0,-2,-4
6,-1,-1,-4,-3,-1,-1,3
-1,-10,-3,0,-1,-3,-1,-3
37,34,1,-3,-1,6,-8,-3
-12,-13,1,-1,-5,-27,-21,-9
1,8,0,1,1,11,19,6
-5,-12,0,0,-1,-11,-2,0
-12,-2,1,2,1,14,10,-3
3,-3,-3,0,1,7,-7,-25
-7,5,1,-2,-2,-4,-4,-5
-5,-15,-6,-2,-2,4,-4,-3
-11,-7,2,2,-1,-4,-3,-3
4,5,-5,-1,1,13,-7,-1
-5,-3,-1,-3,-6,-29,1,0
9,12,4,1,-3,-5,14,12
-7,-3,1,-1,-2,-12,-3,2
3,-5,-1,-1,-1,11,7,7
-9,-3,0,-3,0,7,-11,-8
3,2,-4,-1,1,0,-2,4
-18,-5,-1,-2,-2,-1,-4,-3
1,7,2,0,-5,-51,-9,3
1,-3,0,2,6,53,13,-3
-7,-14,-4,-2,-1,1,-1,10
-3,17,12,0,2,2,-5,-32
9,2,-9,0,3,1,7,5
7,17,-3,-3,-4,-20,-15,6
-7,-33,-7,-4,-1,9,5,-7
-11,-51,-12,-4,-2,-5,-1,4
10,53,9,-1,-2,1,5,7
-5,0,12,1,-1,-4,-4,-4
4,7,-6,2,1,12,-8,-10
-13,-37,4,2,1,-5,-8,2
11,43,-16,-10,-9,-25,-10,-2
2,-14,-4,-2,-4,-2,33,13
3,17,7,1,-4,-15,-16,-5
1,4,1,2,5,0,5,-2
-7,-25,3,3,4,46,1,-13
-4,3,-2,-2,0,-5,6,-19
6,15,-3,-3,-2,-2,-1,-2
7,30,-1,0,-4,-2,-2,4
-9,-31,-3,-2,1,-7,-8,-2
0,2,-5,-3,-1,-6,-2,19
-7,-5,3,-1,1,3,1,-22
5,-1,-4,-2,-3,-6,-32,12
-9,-3,2,0,-3,-4,46,7
-3,-17,-4,1,1,2,-16,-1
0,0,-1,-2,-2,-9,0,15
0,14,-4,-2,-2,13,-7,-17
0,-23,-1,1,-1,7,-1,-7
3,10,1,0,-2,-8,-12,-4
-2,2,1,-1,0,17,4,7
2,9,3,1,0,-8,-1,-4
-5,-19,-6,-1,1,1,-6,3
-3,-3,-2,-1,1,14,6,-13
2,4,-2,-2,-1,-1,-12,3
-3,-7,-4,-3,-2,-9,-21,2
3,-3,4,1,1,12,47,7
2,11,1,0,1,-18,-44,17
-6,-10,-2,0,-1,-5,45,-19
2,7,-1,-3,-2,8,-1,-2
-4,-3,2,0,-1,1,-24,2
3,-5,-5,-3,-3,-11,14,19
0,4,2,1,1,-20,-22,-11
-1,0,-1,2,5,24,22,28
-2,1,-1,-2,-1,-10,-16,-6
0,-7,-1,-1,-1,-4,20,1
0,2,0,-1,-1,-4,-11,3
-1,-3,-4,-3,-2,-11,24,1
0,-1,-1,-1,-2,-19,-34,14
-6,-3,-1,1,1,21,-14,-65
6,-3,0,-2,-1,4,21,5
0,12,-1,-1,-3,-5,-4,-7
-2,-6,-2,-2,1,19,11,-7
-2,-8,-3,-1,-3,-14,-19,21
-4,1,-2,-2,-3,-15,-8,-2
-1,-2,0,-1,1,12,13,8
2,-1,1,1,-1,-13,-39,21
-1,1,0,0,1,5,34,10
-2,-2,-1,1,0,13,14,-9
1,-1,-1,-1,-3,-34,-2,2
-3,-1,2,0,3,21,12,-5
-1,-1,-2,-1,0,-5,-11,-9
-1,-1,-1,1,-1,4,-10,-7
0,-3,-3,-2,-4,-7,3,20
-1,0,0,0,-1,-8,6,-5
2,0,0,0,-3,7,-9,6
-5,-2,-2,-3,-1,-2,-42,-22
2,2,0,2,6,59,34,0
-2,-3,0,-2,-2,-11,-8,2
-5,-1,-3,-3,-3,-17,9,-33
-1,1,0,-3,-1,-2,-2,29
-3,-1,1,0,-2,-11,19,-28
-1,-6,-3,-3,-3,-11,-5,0
-2,-1,0,-1,3,15,-12,4
-1,-1,-3,-2,-4,-8,7,3
-1,1,0,-1,-1,-5,-14,-9
3,2,0,1,-3,-15,12,36
-7,-2,-2,0,-1,-6,-1,-47
-1,-1,-1,0,0,3,-6,4
-1,-3,-1,-1,-1,0,2,3
0,0,-2,0,-2,-12,-14,-12
4,-1,1,-3,-4,2,-13,36
-2,1,2,4,5,10,18,-10
0,-1,1,-1,-4,-10,-9,12
-8,-3,-3,-2,-1,3,-25,-66
-1,1,0,-1,-2,-11,7,-23
1,-1,-1,0,0,-15,-12,24
0,-2,-2,-2,-2,23,24,18
3,1,1,0,2,21,2,15
4,1,-2,0,-1,-24,8,30
-4,-2,0,-2,2,32,6,-36
0,-2,-2,-2,-2,-15,-24,35
-4,-1,0,-2,-3,1,-13,-35
0,-1,-2,1,5,4,-8,17
-3,-1,-2,-3,-5,-26,24,-19
0,0,-1,-1,-3,-29,-28,-3
3,1,1,1,6,52,69,26
-2,-1,0,-2,-2,4,-12,2
0,1,-3,0,-2,4,-15,5
-4,-2,-4,-2,-3,-19,-23,-32
-1,-1,-2,-1,-1,-9,1,4
-3,0,-1,-1,-4,4,-2,-14
0,-1,-1,-1,-2,-8,-4,9
-1,-1,-1,0,-2,3,10,-5
-2,-1,-2,-2,-3,-10,-7,-21
-1,-1,-1,-2,0,7,8,13
1,-1,0,-1,-2,-14,-7,12
0,-1,-2,1,-2,-2,0,11
-4,0,1,0,6,8,-2,-38
-4,-1,0,0,-2,-1,3,-10
-1,-1,-1,-2,0,4,-15,8
-2,0,0,1,1,-12,12,15
-3,1,0,1,0,1,10,-58
0,-1,-1,0,-1,-3,0,6
1,-1,-1,-3,-1,-2,0,35
-2,-1,-1,-2,-1,-12,-29,-35
1,0,0,0,2,42,16,50
-2,-2,-2,-3,-1,1,-22,-37
4,0,-1,0,-3,-7,27,9
-2,0,0,-1,1,1,5,-7
1,0,-3,-2,-3,-15,-7,20
1,-1,-1,-1,-1,3,-3,14
-1,-1,-2,-3,1,8,-9,4
-2,0,0,-1,-2,5,7,-7
-1,-3,-1,0,-3,-17,-9,1
0,0,1,0,0,8,13,13
-1,1,-1,0,0,0,-4,-13
-1,-1,0,-1,0,6,4,-12
1,-2,-2,-2,-3,-10,-7,9
-1,2,-2,0,-1,-1,2,4
0,1,0,1,-2,2,0,-8
1,-3,-3,-3,-5,-16,-9,30
2,2,-1,1,2,2,6,0
1,-2,0,1,1,9,10,25
-7,-5,-2,-3,3,-8,5,-47
8,2,0,1,3,17,-12,70
-7,-2,0,-1,-3,-17,12,-57
0,1,1,-1,-1,-14,5,4
-1,-2,0,-1,-2,19,-17,11
-4,-2,0,1,6,-8,-7,-28
3,1,-1,-2,-2,-17,4,30
1,-2,-3,-1,-1,3,-6,-4
-3,1,-3,-2,-4,0,-2,-3
-3,-4,-1,-2,-2,8,3,-20
2,4,1,-1,1,0,-14,24
-2,2,-3,-2,-2,-8,10,-9
2,-2,-1,-1,-2,-1,-5,21
-1,1,-2,-1,-2,-6,22,28
-2,-4,-1,1,-1,5,-5,-38
1,-2,-1,-1,-2,2,-2,11
0,1,-1,2,0,1,6,-2
-2,-4,-1,-1,-1,-3,-7,-22
1,-2,-2,-2,-2,-1,-6,11
-1,0,0,1,-3,-8,-25,0
-1,1,1,1,2,6,30,-10
-6,-1,-1,-1,-2,-3,0,-46
-2,-1,-2,-1,0,5,0,18
-3,-1,-2,-2,-3,-6,-4,-17
0,-5,-1,-3,-3,-15,-26,21
0,5,-2,-4,3,47,8,-23
-6,-2,-1,0,-5,-51,17,-14
3,2,4,3,1,26,15,12
0,0,-1,-2,-6,-9,-11,13
-2,0,-2,1,0,8,-2,-2
-4,-4,-2,-1,0,15,2,-12
-2,-3,-2,-2,1,-6,-7,-10
3,0,-2,3,-1,5,4,14
-2,1,-1,0,-5,-5,-2,-4
0,0,-2,-1,-1,-6,-12,23
-3,-2,-1,-1,-1,-2,2,-7
-1,1,-1,-1,1,7,9,-11
-1,-2,0,-1,-2,-15,-4,-2
0,-1,-1,-3,-3,-3,-9,7
-1,-2,-2,-2,-2,6,15,18
-1,0,-1,-1,1,-13,-9,-13
0,0,0,-1,0,11,5,-2
3,0,0,0,0,13,-7,27
-1,0,-1,-1,-3,-8,-32,-23
-4,-1,-1,-2,0,-26,29,-13
4,0,1,2,5,18,11,43
1,1,0,-1,-6,-16,-16,-32
0,-2,-2,-1,0,0,-4,-2
0,0,1,0,0,-2,1,-1
1,-2,-1,-2,0,-4,-3,3
0,0,-1,-1,3,16,7,23
-4,-2,-3,-3,-4,-28,-10,-18
2,1,0,0,0,36,-21,15
-4,-1,-3,-1,-4,-15,9,-31
-4,-1,-2,0,6,19,15,-45
-2,-3,0,0,1,-2,13,14
1,-1,-1,0,0,10,-8,3
-1,-1,1,-1,-1,-8,-6,6
-2,-2,-3,-1,-4,-4,-8,9
-1,0,-2,2,0,-4,3,0
0,-2,0,-2,-1,-4,-3,-3
-3,0,-2,-3,-9,-2,6,-41
2,-1,1,2,4,-5,7,26
2,-3,-1,-2,-1,-4,6,22
-2,0,-2,-1,-2,2,-26,-14
-6,-4,-3,-1,-1,-12,29,-14
0,1,2,-1,-2,2,-3,7
0,-1,-2,-3,-6,-19,-5,25
-2,-3,0,1,5,28,15,-16
-7,-1,0,-1,-5,-8,-14,-29
2,-1,1,-1,1,11,4,19
-1,0,1,0,-1,0,-3,2
0,-1,-1,-3,-5,-13,1,39
0,0,1,0,1,-6,-13,-19
1,-1,-1,0,-2,2,-2,2
1,0,-1,0,0,10,10,7
2,1,0,0,0,-4,-8,12
1,-2,-1,-1,0,3,-4,18
-3,0,-3,-2,-5,-15,-8,-10
-1,0,-1,-2,0,3,-3,-14
-3,-3,-3,-1,-4,-2,11,-21
2,-3,1,0,2,-4,-7,20
-2,-2,-2,-2,-3,-24,-5,-1
-1,0,1,-1,1,17,3,1
-5,-1,1,-1,0,-10,0,-70
3,0,0,-1,-2,0,-8,6
0,-3,0,-1,-1,1,1,22
-2,-1,-1,0,2,6,-3,-19
0,-2,-2,-2,-4,-14,6,25
3,1,1,2,2,-6,-11,9
0,-1,0,1,-1,24,9,9
-2,-2,-2,-2,-1,-9,-21,-24
0,-3,0,-1,0,12,27,4
0,-3,-3,-3,-5,-20,-4,43
-6,0,3,2,1,32,5,-64
-2,1,0,1,4,11,-3,-10
-1,-1,-3,-1,-2,-2,-11,12
-5,0,-2,-1,-1,11,4,-27
0,-1,-3,-2,-1,-9,-4,12
-1,-2,-1,-1,-4,-13,5,11
-2,-1,0,2,0,-6,-13,-28
1,-2,-1,-2,-1,0,8,16
-1,-2,-2,-1,-5,-10,-18,9
0,-1,0,-1,1,9,20,-8
2,-1,-1,-1,1,0,1,20
0,-2,0,-1,-2,0,-11,-9
-2,-1,-1,-1,-3,-12,-6,4
-3,-1,1,1,2,-7,-9,-15
-1,-1,0,0,1,1,6,-1
-1,-1,-1,-1,1,35,7,14
-2,0,-1,0,0,-14,-9,-53
1,-3,-3,-5,-5,-13,-1,28
1,1,0,-1,-1,2,13,5
-1,-1,-2,-3,-1,-6,-14,-8
0,-1,-1,-1,1,19,9,23
0,-1,-3,-3,0,7,-3,13
1,0,-2,-3,-4,-16,3,6
-1,1,2,2,3,11,19,-46
-1,-2,-2,-1,-1,-8,0,6
0,-1,0,0,1,10,4,23
-5,-2,-1,0,1,3,-22,-14
-1,-1,-3,-3,-1,-15,-7,12
2,0,0,1,-1,0,2,11
-2,-1,1,-1,0,-3,-14,-17
-2,0,0,-2,1,-1,9,4
-3,0,-1,0,-3,-3,-3,-17
1,0,-1,-1,1,-3,3,9
-2,-1,-3,-2,-3,13,3,-7
2,1,-1,0,-2,-4,-4,7
-1,1,-2,-2,-2,-5,-1,10
-1,-1,-2,-1,-2,6,-8,-4
3,0,-2,-1,1,-11,36,22
2,1,0,1,1,27,-8,21
-2,0,0,0,1,-5,-12,2
-1,-3,-1,-3,-1,-9,11,5
3,0,-1,0,-1,-4,-30,20
-5,-1,-2,-2,0,-6,17,-12
-1,-3,-2,-2,-2,1,1,-35
-1,0,-1,0,1,11,-1,6
-2,-1,0,0,-2,-14,-7,-10
-3,-3,-2,-3,-1,-2,-11,-38
4,-1,-3,-2,-5,-15,0,45
-3,-1,0,0,0,-6,-7,-26
-1,-1,-1,0,-2,5,7,-21
-1,-1,-1,-1,-4,-19,-17,6
-2,-1,-3,0,3,16,16,17
0,0,-1,-2,-3,-4,2,4
-2,-2,1,0,-1,-7,-1,-4
1,0,-1,0,1,0,-2,7
-1,0,0,-1,-2,-5,-11,14
-1,-1,-1,-1,-3,-3,-22,-2
-2,-1,0,1,-4,-19,16,6
-1,-2,-2,-1,-1,13,12,-35
3,-1,2,-1,0,-8,4,35
-4,-3,-1,1,-2,-4,-16,-25
1,1,0,-1,-1,-5,1,-3
1,0,0,0,-1,-3,-2,12
-1,-1,0,1,1,0,-28,11
-6,-3,-3,-3,-2,-7,36,-55
1,1,0,-2,1,8,-2,8
0,-2,-2,0,-1,-1,-1,11
-2,0,0,-3,-1,-2,-2,-31
0,-1,1,-2,-1,0,-10,27
-4,-1,-1,-1,-1,2,-3,-26
-1,-2,0,-2,-5,-9,2,5
-4,0,-1,1,3,3,3,-20
6,-1,-2,-1,-1,0,5,68
-7,-2,0,1,2,12,-2,-44
-1,-1,-1,-2,-3,-11,3,14
-1,1,1,1,-1,1,-9,-19
2,0,1,0,0,1,17,18
-1,0,0,-2,1,12,0,-1
-2,-1,0,-1,-1,-28,-21,-5
0,-2,-2,0,0,17,13,-3
-2,1,-1,0,-2,-1,-5,4
-3,-3,-2,-2,-5,-4,-11,-26
-2,-2,-1,1,1,10,2,-8
0,0,-1,-2,-1,-8,4,11
2,-1,-2,-1,-2,-5,-6,18
3,-1,-1,1,-1,-1,2,25
-1,1,0,-1,-1,-1,-2,1
-1,-2,0,-1,-1,-6,5,17
-2,0,0,-1,-1,7,-3,-22
2,-2,0,2,0,-6,-4,12
0,-1,-2,0,-1,2,-1,-6
0,0,-1,1,-1,1,10,11
-2,-2,-1,-1,-1,-1,-7,-12
-2,-1,-1,-2,1,6,6,0
1,-1,1,-1,-1,0,2,6
-5,-2,0,-4,-4,-2,-11,-47
-3,1,0,0,-1,-4,-10,-1
-3,-2,-2,-1,-1,-3,25,-6
-1,-1,-1,-2,0,2,-5,0
4,0,-2,-1,-1,-3,0,54
-2,0,0,-1,-1,-15,9,-5
5,2,0,0,1,4,-12,19
-5,-2,1,1,2,6,-4,-18
-1,-1,-2,-1,-3,0,0,4
0,-2,-1,-1,1,4,-2,-1
-1,-1,-1,-1,-2,-3,-2,12
0,0,-1,-2,-3,2,2,12
-2,-1,0,0,0,-2,-8,-24
-1,0,-2,0,0,3,11,17
-2,0,1,-2,-3,-6,-11,-21
1,0,1,2,4,9,3,4
-2,-1,-1,-2,-2,-3,-3,-15
0,-2,-1,0,-2,-6,0,0
0,0,-1,-2,-2,-2,-1,5
-1,-1,-1,0,-1,-2,-4,-8
-3,-1,-2,0,3,6,1,2
0,-1,-2,0,0,-1,-1,-2
3,-1,-1,-3,-4,-7,-1,20
-2,1,0,0,-3,-3,-4,-15
7,-16,-3,-1,-1,3,2,-5
-4,42,-4,-6,-7,-7,-9,-8
-6,-6,-2,-1,0,-2,-7,-7
-4,-11,-1,-2,-1,12,1,7
18,16,-1,0,-2,-13,1,0
-26,-5,1,-1,-1,3,3,-6
-1,-20,-3,-3,-3,-4,-4,-5
-35,-43,-11,-2,-1,2,4,6
-50,20,18,8,-2,-2,-7,-12
22,40,1,2,4,1,-2,-5
23,-9,-25,-25,-14,-6,-2,-15
-23,-56,27,30,7,1,3,7
65,82,-6,-26,-4,-3,-6,-6
3,-96,-75,-15,-12,-9,-4,-3
38,97,88,84,55,31,12,10
12,-24,-31,26,0,-5,3,8
-16,19,57,30,14,4,4,1
40,52,32,17,2,7,3,6
-39,-47,-53,-31,-10,-5,-4,-11
-15,-19,-43,-39,-20,-12,-7,-11
8,-9,-26,-7,-1,-1,2,3
-16,-30,-39,-32,-12,-2,-3,-4
-27,-47,1,14,-7,-3,-2,-1
20,53,14,-28,-1,-4,-4,-4
-5,-27,-15,-1,-4,-1,1,-3
-13,-4,15,6,4,2,-2,-4
5,-1,9,-20,-10,-7,-6,-6
9,20,3,4,-3,-6,-5,-4
-6,-25,-11,-8,-4,0,1,0
-10,-20,42,11,3,-1,1,1
1,16,-30,0,3,3,2,-3
9,7,-5,-14,-4,-1,-1,1
-15,13,23,-8,-6,-4,-4,-3
3,-1,25,14,6,0,0,0
-3,-15,-30,-12,-10,-9,-5,-5
8,48,49,6,5,-1,-1,-1
-4,-37,-30,-6,-2,-1,1,32
-15,-15,-14,-3,-2,-1,9,-18
4,18,9,-1,1,0,-60,-44
-53,-27,-21,-4,-5,-5,-16,34
-11,-2,-12,-1,-2,-3,48,-25
-12,16,9,0,2,5,23,97
-10,-8,9,-4,-2,3,-8,-27
-16,-5,-3,1,1,-2,31,45
5,22,4,1,-4,0,-54,-74
-25,-4,-3,-6,-1,-5,-4,3
23,0,-1,-2,2,5,47,65
7,-14,-2,2,0,1,-23,-15
17,10,-1,1,0,3,8,24
-28,-37,-7,-4,-5,-8,-10,-37
6,12,-1,-4,-4,-7,-10,6
8,6,-2,1,2,5,7,-18
19,-4,10,9,5,0,-1,17
-1,-4,-4,-2,1,3,0,-2
-38,-27,-2,1,-2,-2,-1,0
-28,1,37,19,8,4,4,-3
15,-23,-18,2,-2,0,3,0
32,12,-15,-14,-6,-2,-20,-16
44,17,39,5,2,0,13,4
55,9,-36,5,4,-1,0,-22
-19,-43,-18,-35,-9,-5,-6,10
20,74,72,66,22,12,5,1
-57,-86,-26,-13,-3,-2,-1,-7
37,17,-1,-10,-6,-4,-1,1
-14,-12,1,8,-3,-3,-7,1
1,-10,-37,-27,-8,-4,-5,-8
-34,-54,3,-3,-1,1,6,-5
31,25,-6,3,2,0,-8,-4
-33,-49,-7,-3,-3,0,-4,-1
13,6,2,-6,0,-2,3,-6
-23,-14,-2,11,2,9,1,11
15,12,13,-5,-1,-9,5,9
-4,-13,-19,-1,-1,-5,-8,-1
-16,-51,8,0,1,3,-5,-4
38,68,-6,-3,-4,0,4,0
-44,1,-6,-5,-3,8,-5,-11
15,55,15,1,0,6,9,0
-51,-119,-40,0,0,-20,16,70
2,73,58,-2,-4,-9,-7,-22
-4,0,6,4,4,11,5,16
-20,10,11,8,1,-2,-19,-55
8,6,-11,-8,-4,8,-7,-3
15,-11,-39,-12,-4,11,-9,7
-18,-16,17,-1,0,-24,-13,-12
24,-18,-4,7,9,22,45,33
16,27,3,-7,-4,-21,-15,-21
8,9,-1,1,1,-3,6,3
-4,13,1,-1,-2,0,-8,-15
3,-7,-8,-1,0,4,-6,10
2,36,3,-4,-2,10,7,-20
7,-7,-4,2,-1,-9,-3,-3
43,-13,-19,-18,-11,-2,-4,-3
44,79,13,15,1,-7,-6,7
40,19,13,10,1,1,1,-4
-6,16,-6,-14,-3,-4,-5,5
-5,-10,-21,-8,-4,2,6,1
-19,-12,0,7,2,-4,-1,2
3,5,5,-11,-3,2,-10,-13
27,37,1,3,-1,1,5,3
-9,0,-31,-17,-6,-3,1,-5
14,-46,23,3,4,-4,-3,4
-59,-4,4,4,4,5,-2,-6
12,-3,-12,-8,-5,-7,-1,-3
-6,8,18,9,2,2,4,0
-20,-11,-21,-19,-8,-6,-7,2
20,-23,-13,-2,-1,1,-2,-7
-12,2,26,7,1,1,3,2
-1,-1,-34,0,0,0,-2,-4
-14,-7,13,9,3,0,1,1
16,-1,-22,-16,-8,-5,-4,-5
4,24,13,7,5,-1,1,-2
-3,-18,14,10,5,16,1,2
-53,-35,-33,-13,-6,-22,-10,-11
11,45,24,3,0,-2,-1,-2
-10,-22,6,0,0,5,6,3
9,20,12,4,-1,-4,1,2
14,21,-3,-5,0,7,1,5
-19,-45,-13,-6,-5,-3,-7,-6
-8,-16,-22,-8,-8,-7,-4,-2
3,5,22,17,4,4,2,-2
-11,24,-10,-10,-6,-4,-5,-4
10,-1,7,3,0,0,1,-1
-12,14,-1,17,10,3,2,3
-19,-18,6,-7,-2,-2,1,2
-15,7,-4,-3,-3,-1,-2,3
-28,6,-6,-5,-2,-2,-2,-8
-23,-24,-17,-13,-9,-5,-5,-4
-21,-20,23,5,3,-6,-1,-2
12,-3,-4,5,2,1,1,4
6,14,7,-1,0,4,1,-1
-11,-21,-8,1,-1,-2,-2,-2
19,9,-8,-8,-6,-6,-3,-4
7,-10,8,1,1,4,1,2
2,1,-1,2,1,1,0,1
-13,11,-2,-2,-2,-1,-1,-1
8,11,1,0,-1,0,1,2
2,-19,-14,-1,-2,-2,-4,-2
-9,13,32,8,2,2,0,0
-15,-27,7,4,0,-3,-1,1
23,27,5,-1,0,1,0,-1
-6,-5,-8,-2,-1,0,2,5
5,-14,-8,-8,-3,-2,-2,-4
11,-13,-13,-5,0,-1,-2,-1
-11,-12,-11,0,0,-1,-1,-1
-1,-1,15,-2,-3,-2,-2,-3
19,24,-19,-4,0,0,2,3
7,-8,-6,-10,-5,-1,0,-1
0,21,0,0,0,-2,-1,1
-2,-9,8,-4,-1,-3,-2,-2
14,3,6,3,1,0,-2,-1
13,-1,-2,5,0,0,1,0
-9,13,5,-3,-4,-2,-2,0
6,20,8,7,0,2,-2,1
-6,-31,-19,-11,-5,-1,-2,1
19,14,-3,-1,-6,-4,-1,3
-44,-36,3,-17,0,0,-1,-4
2,21,20,23,8,4,2,-1
-6,-11,-14,-4,-1,-2,0,1
13,15,2,-2,-1,0,-1,-2
-14,-22,-24,-16,-10,-3,-1,-1
13,-8,-5,-7,-3,-3,-2,-3
-6,19,14,7,4,0,0,-1
-9,-13,-19,-6,-5,-2,-2,-2
12,-12,0,5,0,-2,-1,-1
-19,-6,0,-6,0,1,1,1
10,8,11,19,2,0,-1,-1
5,1,1,1,2,1,-1,-1
15,3,-8,-1,0,-1,-1,2
11,0,-10,-18,-8,-3,0,-1
-13,-22,5,-6,-1,-1,-1,-5
-3,16,52,30,12,1,0,1
-9,-47,-21,-16,-3,-2,-2,-5
10,17,0,5,1,-2,-1,1
-14,-22,-30,-21,-7,-2,-1,-3
19,8,-10,-11,-5,-1,-1,1
5,0,-7,-2,-2,-1,-1,-3
-19,-11,19,-1,-3,-3,-4,-4
-4,7,5,7,2,1,0,2
7,36,-4,-1,-3,-2,-4,-3
-3,-7,-19,-7,-3,-4,-2,-1
3,3,-7,10,2,2,0,2
17,62,74,36,12,5,3,6
-11,-54,-40,-12,0,2,3,2
-1,9,10,5,1,0,-3,-5
16,29,25,29,9,2,2,3
-7,-15,-14,-16,-11,-7,-2,-7
-15,-4,11,2,3,0,1,-1
14,-10,-30,-18,-9,-4,-2,-1
18,22,33,45,16,9,6,6
-4,25,-12,-11,-4,1,-1,-1
-10,-24,2,14,3,1,0,-2
-15,-43,-14,-8,-3,-2,-2,-6
-14,-24,-10,-22,-8,-5,-3,-5
13,23,-25,-11,-3,-4,-2,1
-3,26,36,15,1,-1,-1,1
17,24,-10,1,-1,-1,1,2
-4,36,10,2,-1,0,2,2
26,-38,16,32,8,2,1,2
-30,-50,-17,-18,-6,-5,-4,-7
44,48,21,18,9,3,2,6
-4,41,1,-12,-5,-3,-2,-6
-1,-19,-10,-20,-8,-3,-2,0
-6,-64,-25,-7,-2,-1,0,-3
-3,23,39,8,-3,-1,0,0
-30,-35,-39,-26,-7,-5,-6,-11
-8,-59,-22,7,2,0,-2,-2
9,36,32,-17,-5,-1,-1,1
-13,-45,-8,13,1,1,0,-2
10,-19,-6,-8,-5,-4,-2,1
0,42,-1,-14,-4,-3,-2,-2
-9,-81,-60,-3,-2,-2,-3,-5
7,88,15,-28,-3,-1,-2,2
-10,-25,19,28,7,3,0,-1
9,45,10,-2,1,3,1,4
15,33,19,8,-3,-5,-3,0
-8,0,-11,-14,-4,1,-3,-2
11,18,12,14,3,-2,0,1
-19,-17,1,-1,-2,0,0,-4
-1,14,-39,-21,-5,-2,-1,-3
-12,-33,-15,10,6,4,5,3
8,11,20,7,1,0,-1,2
1,11,7,-2,-2,-4,-4,-2
-11,16,10,-7,-2,0,-3,-3
10,11,28,34,9,6,1,3
-2,-14,-30,-20,-7,-4,-1,0
-1,-45,-5,6,4,1,2,0
-10,8,6,-4,-2,-1,1,2
2,-6,-26,-34,-9,-7,-4,-3
2,0,28,12,0,1,0,3
-15,-34,23,15,2,-2,-2,-4
19,-4,-32,-2,1,-1,2,5
-20,-16,8,10,-2,-3,-2,-2
0,-44,-38,-26,-10,-2,0,-4
-3,4,-34,-30,-9,-3,-3,-4
1,29,47,53,16,5,3,3
-4,-7,15,10,1,-1,-1,-1
-6,-49,-35,-23,-7,-5,-2,-4
-2,-19,14,4,5,4,4,6
4,3,-1,-11,-6,-6,-4,-5
-1,-2,-13,-9,-2,-1,-2,-2
2,5,-3,19,5,3,1,2
-4,-46,-24,-3,0,1,0,0
-3,-24,-8,-12,-1,0,0,1
-13,-11,19,6,-2,-2,0,-2
4,15,9,-12,-5,-5,-4,-2
-22,-12,-13,-15,-4,-5,-4,-5
19,31,7,10,1,1,0,2
9,14,19,19,5,0,1,0
-2,72,-17,-19,-3,-1,-1,-1
44,67,16,11,-1,0,0,3
-23,-17,7,-4,-4,-4,-2,-6
-7,-17,-14,-11,2,2,2,3
16,50,45,19,4,2,2,3
-25,-37,-11,-5,-5,-3,-4,-8
-6,34,6,0,-1,2,0,0
-7,-59,-41,-16,-5,-3,-2,-4
-17,-33,-4,-15,-5,-3,-2,-3
-1,23,-13,3,1,0,1,-2
9,-11,-12,3,2,3,1,1
-3,36,37,9,0,-1,-2,-1
-7,-36,-22,-10,-5,-2,-3,-2
9,10,2,-4,-2,-1,1,0
-2,-49,-36,-14,-4,-3,-2,-5
-1,17,4,-2,-1,-1,1,-2
8,-21,-10,7,0,0,0,-2
0,53,12,4,1,0,-3,0
6,20,8,2,-1,-3,-2,-1
4,4,-10,1,0,-1,-1,-1
10,-36,-8,-7,-1,-1,-1,-1
-48,3,-5,0,0,1,1,-4
23,23,13,13,1,-2,-1,0
-5,-10,14,-4,-2,-1,-2,-1
2,-5,-13,-10,0,-3,0,-1
14,11,13,9,1,0,1,3
-2,33,16,-4,1,2,2,3
-8,-37,-43,-11,-6,-5,-3,-4
-14,5,11,-9,-6,-3,-2,-4
11,2,-11,1,1,0,0,2
-15,-34,-15,-14,-7,-4,-3,-5
17,29,12,13,4,2,2,5
-10,-25,-22,-3,-2,-1,-2,-1
6,-8,24,-6,-5,-4,-3,-2
14,17,3,-3,-1,-1,0,2
-16,-13,9,6,5,1,0,-2
-13,12,8,15,2,2,-1,-2
2,0,-19,-25,-4,-2,-2,-3
2,6,23,10,2,0,-1,-1
-1,13,-2,-5,-5,-3,0,0
-16,9,-3,-6,-1,-1,0,-2
23,-61,-23,-1,-2,-2,-1,2
-9,14,0,-5,-1,-1,-2,-4
3,9,9,6,-1,-1,-1,1
9,14,3,2,1,0,0,2
-9,-11,-14,-4,-2,-2,-1,-1
-10,-43,-4,-3,-2,-2,0,-1
